timestamp:,ADC,HeartRate4sAverag,HeartRate30sAverage
1697892514.393:,514,127,119
1697892514.393:,-82,127,119
1697892514.393:,-638,127,119
1697892514.393:,-1148,127,119
1697892514.393:,-1637,127,119
1697892514.393:,-2089,127,119
1697892514.393:,-2430,127,119
1697892514.393:,-2574,127,119
1697892514.393:,-2491,127,119
1697892514.393:,-2223,127,119
1697892514.393:,-1866,127,119
1697892514.393:,-1530,127,119
1697892514.417:,-1293,63,113
1697892514.417:,-1187,63,113
1697892514.417:,-1187,63,113
1697892514.417:,-1245,63,113
1697892514.417:,-1327,63,113
1697892514.417:,-1426,63,113
1697892514.417:,-1545,63,113
1697892514.417:,-1659,63,113
1697892514.417:,-1719,63,113
1697892514.417:,-1662,63,113
1697892514.417:,-1458,63,113
1697892514.417:,-1121,63,113
1697892514.417:,-711,63,113
1697892514.483:,-307,63,113
1697892514.483:,26,63,113
1697892514.483:,262,63,113
1697892514.483:,417,63,113
1697892514.483:,531,63,113
1697892514.483:,622,63,113
1697892514.483:,687,63,113
1697892514.483:,716,63,113
1697892514.483:,709,63,113
1697892514.483:,683,63,113
1697892514.483:,653,63,113
1697892514.483:,627,63,113
1697892514.504:,605,63,113
1697892514.504:,595,63,113
1697892514.504:,607,63,113
1697892514.504:,638,63,113
1697892514.504:,675,63,113
1697892514.504:,700,63,113
1697892514.504:,705,63,113
1697892514.504:,692,63,113
1697892514.504:,671,63,113
1697892514.504:,650,63,113
1697892514.504:,633,63,113
1697892514.504:,624,63,113
1697892514.504:,622,63,113
1697892514.504:,628,63,113
1697892514.504:,636,63,113
1697892514.504:,642,63,113
1697892514.504:,646,63,113
1697892514.504:,647,63,113
1697892514.504:,646,63,113
1697892514.504:,646,63,113
1697892514.504:,646,63,113
1697892514.504:,648,63,113
1697892514.504:,654,63,113
1697892514.504:,663,63,113
1697892514.504:,673,63,113
1697892514.525:,683,63,113
1697892514.525:,691,63,113
1697892514.525:,701,63,113
1697892514.525:,713,63,113
1697892514.525:,727,63,113
1697892514.525:,741,63,113
1697892514.525:,754,63,113
1697892514.525:,771,63,113
1697892514.525:,794,63,113
1697892514.525:,822,63,113
1697892514.525:,847,63,113
1697892514.525:,863,63,113
1697892514.525:,871,63,113
1697892514.546:,880,63,113
1697892514.546:,894,63,113
1697892514.546:,908,63,113
1697892514.546:,913,63,113
1697892514.546:,908,63,113
1697892514.546:,903,63,113
1697892514.546:,906,63,113
1697892514.546:,913,63,113
1697892514.546:,918,63,113
1697892514.546:,915,63,113
1697892514.546:,908,63,113
1697892514.546:,905,63,113
1697892514.568:,905,63,113
1697892514.568:,901,63,113
1697892514.568:,889,63,113
1697892514.568:,868,63,113
1697892514.568:,846,63,113
1697892514.568:,824,63,113
1697892514.568:,800,63,113
1697892514.568:,769,63,113
1697892514.568:,732,63,113
1697892514.568:,696,63,113
1697892514.568:,664,63,113
1697892514.568:,637,63,113
1697892514.568:,609,63,113
1697892514.593:,578,63,113
1697892514.593:,544,63,113
1697892514.593:,514,63,113
1697892514.593:,493,63,113
1697892514.593:,477,63,113
1697892514.593:,460,63,113
1697892514.593:,436,63,113
1697892514.593:,408,63,113
1697892514.593:,383,63,113
1697892514.593:,367,63,113
1697892514.593:,357,63,113
1697892514.593:,341,63,113
1697892514.618:,316,63,113
1697892514.618:,286,63,113
1697892514.618:,263,63,113
1697892514.618:,249,63,113
1697892514.618:,239,63,113
1697892514.618:,224,63,113
1697892514.618:,203,63,113
1697892514.618:,182,63,113
1697892514.618:,168,63,113
1697892514.618:,159,63,113
1697892514.618:,150,63,113
1697892514.618:,138,63,113
1697892514.618:,125,63,113
1697892514.645:,115,63,113
1697892514.645:,108,63,113
1697892514.645:,101,63,113
1697892514.645:,91,63,113
1697892514.646:,78,63,113
1697892514.646:,66,63,113
1697892514.646:,58,63,113
1697892514.646:,53,63,113
1697892514.646:,49,63,113
1697892514.646:,43,63,113
1697892514.646:,34,63,113
1697892514.646:,25,63,113
1697892514.671:,21,63,113
1697892514.671:,24,63,113
1697892514.671:,28,63,113
1697892514.671:,30,63,113
1697892514.671:,26,63,113
1697892514.671:,22,63,113
1697892514.671:,24,63,113
1697892514.671:,34,63,113
1697892514.671:,43,63,113
1697892514.671:,46,63,113
1697892514.671:,41,63,113
1697892514.671:,37,63,113
1697892514.671:,40,63,113
1697892514.695:,46,63,113
1697892514.695:,50,63,113
1697892514.695:,50,63,113
1697892514.695:,48,63,113
1697892514.695:,51,63,113
1697892514.695:,55,63,113
1697892514.695:,57,63,113
1697892514.695:,57,63,113
1697892514.695:,60,63,113
1697892514.695:,70,63,113
1697892514.695:,82,63,113
1697892514.695:,91,63,113
1697892514.717:,96,63,113
1697892514.717:,106,63,113
1697892514.717:,122,63,113
1697892514.717:,139,63,113
1697892514.717:,151,63,113
1697892514.717:,156,63,113
1697892514.717:,160,63,113
1697892514.717:,160,63,113
1697892514.717:,153,63,113
1697892514.717:,138,63,113
1697892514.717:,124,63,113
1697892514.717:,118,63,113
1697892514.717:,119,63,113
1697892514.740:,119,63,113
1697892514.740:,117,63,113
1697892514.740:,119,63,113
1697892514.740:,128,63,113
1697892514.740:,134,63,113
1697892514.740:,125,63,113
1697892514.740:,104,63,113
1697892514.740:,86,63,113
1697892514.740:,78,63,113
1697892514.740:,73,63,113
1697892514.740:,56,63,113
1697892514.740:,27,63,113
1697892514.765:,3,63,113
1697892514.765:,1,63,113
1697892514.765:,15,63,113
1697892514.765:,30,63,113
1697892514.765:,30,63,113
1697892514.765:,26,63,113
1697892514.765:,30,63,113
1697892514.765:,43,63,113
1697892514.765:,50,63,113
1697892514.765:,39,63,113
1697892514.765:,19,63,113
1697892514.765:,11,63,113
1697892514.765:,24,63,113
1697892514.790:,47,63,113
1697892514.790:,62,63,113
1697892514.790:,67,63,113
1697892514.790:,78,63,113
1697892514.790:,105,63,113
1697892514.790:,137,63,113
1697892514.790:,155,63,113
1697892514.790:,157,63,113
1697892514.790:,153,63,113
1697892514.790:,153,63,113
1697892514.790:,155,63,113
1697892514.790:,153,63,113
1697892514.822:,151,63,113
1697892514.822:,159,63,113
1697892514.822:,178,63,113
1697892514.822:,197,63,113
1697892514.822:,207,63,113
1697892514.822:,211,63,113
1697892514.822:,220,63,113
1697892514.822:,236,63,113
1697892514.822:,249,63,113
1697892514.822:,250,63,113
1697892514.822:,244,63,113
1697892514.822:,243,63,113
1697892514.822:,252,63,113
1697892514.848:,265,63,113
1697892514.848:,267,63,113
1697892514.848:,261,63,113
1697892514.848:,271,63,113
1697892514.848:,317,63,113
1697892514.848:,401,63,113
1697892514.848:,501,63,113
1697892514.848:,596,63,113
1697892514.848:,685,63,113
1697892514.848:,789,63,113
1697892514.848:,933,63,113
1697892514.848:,1126,63,113
1697892514.872:,1361,63,113
1697892514.872:,1622,63,113
1697892514.872:,1885,63,113
1697892514.872:,2104,63,113
1697892514.872:,2221,63,113
1697892514.872:,2172,63,113
1697892514.872:,1912,63,113
1697892514.872:,1427,63,113
1697892514.872:,738,63,113
1697892514.872:,-97,63,113
1697892514.872:,-992,63,113
1697892514.872:,-1847,63,113
1697892514.872:,-2569,63,113
1697892514.894:,-3091,126,112
1697892514.894:,-3376,126,112
1697892514.894:,-3418,126,112
1697892514.894:,-3238,126,112
1697892514.894:,-2883,126,112
1697892514.894:,-2414,126,112
1697892514.894:,-1919,126,112
1697892514.894:,-1502,126,112
1697892514.894:,-1255,126,112
1697892514.894:,-1217,126,112
1697892514.915:,-1341,126,112
1697892514.915:,-1527,126,112
1697892514.915:,-1683,126,112
1697892514.915:,-1766,126,112
1697892514.915:,-1773,126,112
1697892514.915:,-1697,126,112
1697892514.915:,-1504,126,112
1697892514.915:,-1162,126,112
1697892514.915:,-687,126,112
1697892514.915:,-149,126,112
1697892514.915:,355,126,112
1697892514.915:,747,126,112
1697892514.936:,997,126,112
1697892514.936:,1120,126,112
1697892514.936:,1158,126,112
1697892514.936:,1151,126,112
1697892514.936:,1131,126,112
1697892514.936:,1113,126,112
1697892514.936:,1097,126,112
1697892514.936:,1085,126,112
1697892514.936:,1077,126,112
1697892514.936:,1074,126,112
1697892514.936:,1075,126,112
1697892514.936:,1078,126,112
1697892514.957:,1083,126,112
1697892514.957:,1091,126,112
1697892514.957:,1103,126,112
1697892514.957:,1114,126,112
1697892514.957:,1120,126,112
1697892514.957:,1118,126,112
1697892514.957:,1109,126,112
1697892514.957:,1097,126,112
1697892514.957:,1085,126,112
1697892514.957:,1074,126,112
1697892514.957:,1067,126,112
1697892514.957:,1063,126,112
1697892514.957:,1058,126,112
1697892514.979:,1050,126,112
1697892514.979:,1039,126,112
1697892514.979:,1027,126,112
1697892514.979:,1018,126,112
1697892514.979:,1015,126,112
1697892514.979:,1015,126,112
1697892514.979:,1019,126,112
1697892514.979:,1028,126,112
1697892514.979:,1037,126,112
1697892514.979:,1044,126,112
1697892514.979:,1051,126,112
1697892514.979:,1066,126,112
1697892515.004:,1091,126,112
1697892515.004:,1118,126,112
1697892515.004:,1138,126,112
1697892515.004:,1153,126,112
1697892515.004:,1179,126,112
1697892515.004:,1220,126,112
1697892515.004:,1264,126,112
1697892515.004:,1293,126,112
1697892515.004:,1306,126,112
1697892515.004:,1322,126,112
1697892515.004:,1358,126,112
1697892515.004:,1407,126,112
1697892515.004:,1448,126,112
1697892515.037:,1469,126,112
1697892515.037:,1480,126,112
1697892515.037:,1494,126,112
1697892515.037:,1514,126,112
1697892515.037:,1532,126,112
1697892515.037:,1537,126,112
1697892515.037:,1529,126,112
1697892515.037:,1510,126,112
1697892515.037:,1487,126,112
1697892515.037:,1467,126,112
1697892515.037:,1454,126,112
1697892515.037:,1444,126,112
1697892515.058:,1426,126,112
1697892515.058:,1397,126,112
1697892515.058:,1364,126,112
1697892515.058:,1333,126,112
1697892515.058:,1300,126,112
1697892515.058:,1253,126,112
1697892515.058:,1195,126,112
1697892515.058:,1135,126,112
1697892515.058:,1081,126,112
1697892515.058:,1028,126,112
1697892515.058:,965,126,112
1697892515.058:,895,126,112
1697892515.058:,831,126,112
1697892515.083:,782,126,112
1697892515.083:,738,126,112
1697892515.083:,682,126,112
1697892515.083:,614,126,112
1697892515.083:,547,126,112
1697892515.083:,493,126,112
1697892515.083:,446,126,112
1697892515.083:,393,126,112
1697892515.083:,325,126,112
1697892515.083:,253,126,112
1697892515.083:,193,126,112
1697892515.083:,149,126,112
1697892515.108:,112,126,112
1697892515.108:,71,126,112
1697892515.108:,26,126,112
1697892515.108:,-17,126,112
1697892515.108:,-51,126,112
1697892515.108:,-77,126,112
1697892515.108:,-98,126,112
1697892515.108:,-114,126,112
1697892515.108:,-125,126,112
1697892515.108:,-134,126,112
1697892515.108:,-145,126,112
1697892515.108:,-156,126,112
1697892515.108:,-167,126,112
1697892515.130:,-172,126,112
1697892515.130:,-174,126,112
1697892515.130:,-175,126,112
1697892515.130:,-176,126,112
1697892515.130:,-178,126,112
1697892515.130:,-183,126,112
1697892515.130:,-193,126,112
1697892515.130:,-200,126,112
1697892515.130:,-196,126,112
1697892515.130:,-181,126,112
1697892515.130:,-168,126,112
1697892515.130:,-168,126,112
1697892515.153:,-176,126,112
1697892515.153:,-178,126,112
1697892515.153:,-167,126,112
1697892515.153:,-155,126,112
1697892515.153:,-157,126,112
1697892515.153:,-171,126,112
1697892515.153:,-180,126,112
1697892515.153:,-177,126,112
1697892515.153:,-170,126,112
1697892515.153:,-173,126,112
1697892515.153:,-185,126,112
1697892515.153:,-191,126,112
1697892515.153:,-183,126,112
1697892515.188:,-169,126,112
1697892515.188:,-165,126,112
1697892515.188:,-171,126,112
1697892515.188:,-175,126,112
1697892515.188:,-165,126,112
1697892515.188:,-148,126,112
1697892515.188:,-137,126,112
1697892515.188:,-138,126,112
1697892515.188:,-148,126,112
1697892515.188:,-152,126,112
1697892515.188:,-140,126,112
1697892515.188:,-115,126,112
1697892515.223:,-88,126,112
1697892515.223:,-69,126,112
1697892515.223:,-60,126,112
1697892515.223:,-49,126,112
1697892515.223:,-29,126,112
1697892515.223:,2,126,112
1697892515.223:,32,126,112
1697892515.223:,47,126,112
1697892515.223:,44,126,112
1697892515.223:,31,126,112
1697892515.223:,20,126,112
1697892515.223:,17,126,112
1697892515.223:,13,126,112
1697892515.245:,2,126,112
1697892515.245:,-11,126,112
1697892515.245:,-16,126,112
1697892515.245:,-9,126,112
1697892515.245:,2,126,112
1697892515.245:,1,126,112
1697892515.245:,-15,126,112
1697892515.245:,-34,126,112
1697892515.245:,-40,126,112
1697892515.245:,-36,126,112
1697892515.245:,-39,126,112
1697892515.245:,-64,126,112
1697892515.266:,-103,126,112
1697892515.266:,-133,126,112
1697892515.266:,-139,126,112
1697892515.266:,-127,126,112
1697892515.266:,-120,126,112
1697892515.266:,-127,126,112
1697892515.266:,-142,126,112
1697892515.266:,-147,126,112
1697892515.266:,-135,126,112
1697892515.266:,-115,126,112
1697892515.266:,-106,126,112
1697892515.266:,-112,126,112
1697892515.266:,-125,126,112
1697892515.287:,-129,126,112
1697892515.287:,-119,126,112
1697892515.287:,-99,126,112
1697892515.287:,-75,126,112
1697892515.287:,-55,126,112
1697892515.287:,-38,126,112
1697892515.287:,-28,126,112
1697892515.287:,-18,126,112
1697892515.287:,-3,126,112
1697892515.287:,18,126,112
1697892515.287:,37,126,112
1697892515.287:,42,126,112
1697892515.308:,27,126,112
1697892515.308:,6,126,112
1697892515.308:,-1,126,112
1697892515.308:,10,126,112
1697892515.308:,29,126,112
1697892515.308:,43,126,112
1697892515.308:,49,126,112
1697892515.308:,55,126,112
1697892515.308:,62,126,112
1697892515.308:,73,126,112
1697892515.308:,84,126,112
1697892515.308:,99,126,112
1697892515.308:,117,126,112
1697892515.330:,132,126,112
1697892515.330:,139,126,112
1697892515.330:,137,126,112
1697892515.330:,125,126,112
1697892515.330:,116,126,112
1697892515.330:,133,126,112
1697892515.330:,194,126,112
1697892515.330:,295,126,112
1697892515.330:,415,126,112
1697892515.330:,530,126,112
1697892515.330:,637,126,112
1697892515.330:,759,126,112
1697892515.355:,923,126,112
1697892515.355:,1139,126,112
1697892515.355:,1389,126,112
1697892515.355:,1651,126,112
1697892515.355:,1895,126,112
1697892515.355:,2069,126,112
1697892515.355:,2093,126,112
1697892515.355:,1882,126,112
1697892515.355:,1399,126,112
1697892515.355:,686,126,112
1697892515.355:,-146,126,112
1697892515.355:,-993,126,112
1697892515.355:,-1798,126,112
1697892515.380:,-2545,126,112
1697892515.380:,-3187,126,112
1697892515.380:,-3619,126,112
1697892515.380:,-3738,126,112
1697892515.380:,-3529,126,112
1697892515.380:,-3099,126,112
1697892515.380:,-2602,126,112
1697892515.380:,-2146,126,112
1697892515.380:,-1772,126,112
1697892515.380:,-1505,126,112
1697892515.380:,-1393,126,112
1697892515.380:,-1473,126,112
1697892515.446:,-1707,124,110
1697892515.446:,-1979,124,110
1697892515.446:,-2174,124,110
1697892515.446:,-2237,124,110
1697892515.446:,-2177,124,110
1697892515.446:,-1997,124,110
1697892515.446:,-1669,124,110
1697892515.446:,-1174,124,110
1697892515.446:,-561,124,110
1697892515.446:,64,124,110
1697892515.446:,586,124,110
1697892515.446:,943,124,110
1697892515.446:,1137,124,110
1697892515.446:,1213,124,110
1697892515.446:,1226,124,110
1697892515.446:,1213,124,110
1697892515.446:,1191,124,110
1697892515.446:,1165,124,110
1697892515.446:,1136,124,110
1697892515.446:,1107,124,110
1697892515.446:,1087,124,110
1697892515.446:,1080,124,110
1697892515.446:,1086,124,110
1697892515.446:,1098,124,110
1697892515.446:,1114,124,110
1697892515.467:,1132,124,110
1697892515.467:,1149,124,110
1697892515.467:,1159,124,110
1697892515.467:,1158,124,110
1697892515.467:,1139,124,110
1697892515.467:,1106,124,110
1697892515.467:,1068,124,110
1697892515.467:,1043,124,110
1697892515.467:,1042,124,110
1697892515.467:,1057,124,110
1697892515.467:,1070,124,110
1697892515.467:,1065,124,110
1697892515.467:,1044,124,110
1697892515.488:,1024,124,110
1697892515.488:,1017,124,110
1697892515.488:,1018,124,110
1697892515.488:,1017,124,110
1697892515.488:,1015,124,110
1697892515.488:,1019,124,110
1697892515.488:,1031,124,110
1697892515.488:,1043,124,110
1697892515.488:,1048,124,110
1697892515.488:,1050,124,110
1697892515.488:,1065,124,110
1697892515.488:,1096,124,110
1697892515.509:,1131,124,110
1697892515.509:,1157,124,110
1697892515.509:,1172,124,110
1697892515.509:,1192,124,110
1697892515.509:,1226,124,110
1697892515.509:,1271,124,110
1697892515.509:,1310,124,110
1697892515.509:,1338,124,110
1697892515.509:,1361,124,110
1697892515.509:,1390,124,110
1697892515.509:,1423,124,110
1697892515.509:,1450,124,110
1697892515.509:,1463,124,110
1697892515.530:,1467,124,110
1697892515.530:,1471,124,110
1697892515.530:,1479,124,110
1697892515.530:,1483,124,110
1697892515.530:,1471,124,110
1697892515.530:,1443,124,110
1697892515.530:,1412,124,110
1697892515.530:,1392,124,110
1697892515.530:,1385,124,110
1697892515.530:,1373,124,110
1697892515.530:,1341,124,110
1697892515.530:,1290,124,110
1697892515.551:,1242,124,110
1697892515.551:,1211,124,110
1697892515.551:,1186,124,110
1697892515.551:,1144,124,110
1697892515.551:,1080,124,110
1697892515.551:,1014,124,110
1697892515.551:,969,124,110
1697892515.551:,939,124,110
1697892515.551:,897,124,110
1697892515.551:,829,124,110
1697892515.551:,748,124,110
1697892515.551:,681,124,110
1697892515.551:,636,124,110
1697892515.578:,596,124,110
1697892515.578:,539,124,110
1697892515.578:,468,124,110
1697892515.578:,399,124,110
1697892515.578:,346,124,110
1697892515.578:,300,124,110
1697892515.578:,251,124,110
1697892515.578:,194,124,110
1697892515.578:,141,124,110
1697892515.578:,98,124,110
1697892515.578:,58,124,110
1697892515.578:,11,124,110
1697892515.599:,-45,124,110
1697892515.599:,-98,124,110
1697892515.599:,-137,124,110
1697892515.599:,-163,124,110
1697892515.599:,-184,124,110
1697892515.599:,-207,124,110
1697892515.599:,-233,124,110
1697892515.599:,-260,124,110
1697892515.599:,-286,124,110
1697892515.599:,-305,124,110
1697892515.599:,-313,124,110
1697892515.599:,-312,124,110
1697892515.599:,-313,124,110
1697892515.625:,-326,124,110
1697892515.625:,-347,124,110
1697892515.625:,-356,124,110
1697892515.625:,-345,124,110
1697892515.625:,-319,124,110
1697892515.625:,-299,124,110
1697892515.625:,-297,124,110
1697892515.625:,-306,124,110
1697892515.625:,-310,124,110
1697892515.625:,-301,124,110
1697892515.625:,-284,124,110
1697892515.625:,-271,124,110
1697892515.650:,-272,124,110
1697892515.650:,-284,124,110
1697892515.650:,-297,124,110
1697892515.650:,-298,124,110
1697892515.650:,-286,124,110
1697892515.650:,-268,124,110
1697892515.650:,-258,124,110
1697892515.650:,-255,124,110
1697892515.650:,-254,124,110
1697892515.650:,-248,124,110
1697892515.650:,-236,124,110
1697892515.650:,-222,124,110
1697892515.650:,-210,124,110
1697892515.675:,-201,124,110
1697892515.675:,-197,124,110
1697892515.675:,-198,124,110
1697892515.675:,-199,124,110
1697892515.675:,-196,124,110
1697892515.675:,-190,124,110
1697892515.675:,-187,124,110
1697892515.675:,-189,124,110
1697892515.675:,-195,124,110
1697892515.675:,-197,124,110
1697892515.675:,-193,124,110
1697892515.675:,-184,124,110
1697892515.700:,-172,124,110
1697892515.700:,-160,124,110
1697892515.700:,-146,124,110
1697892515.700:,-129,124,110
1697892515.700:,-115,124,110
1697892515.700:,-107,124,110
1697892515.700:,-102,124,110
1697892515.700:,-94,124,110
1697892515.700:,-80,124,110
1697892515.700:,-68,124,110
1697892515.700:,-70,124,110
1697892515.700:,-88,124,110
1697892515.700:,-109,124,110
1697892515.727:,-122,124,110
1697892515.727:,-125,124,110
1697892515.727:,-130,124,110
1697892515.727:,-142,124,110
1697892515.727:,-155,124,110
1697892515.727:,-159,124,110
1697892515.727:,-157,124,110
1697892515.727:,-162,124,110
1697892515.727:,-178,124,110
1697892515.727:,-194,124,110
1697892515.727:,-202,124,110
1697892515.727:,-203,124,110
1697892515.752:,-214,124,110
1697892515.752:,-239,124,110
1697892515.752:,-266,124,110
1697892515.752:,-280,124,110
1697892515.752:,-280,124,110
1697892515.752:,-281,124,110
1697892515.752:,-293,124,110
1697892515.752:,-310,124,110
1697892515.752:,-319,124,110
1697892515.752:,-314,124,110
1697892515.752:,-307,124,110
1697892515.752:,-309,124,110
1697892515.752:,-320,124,110
1697892515.773:,-328,124,110
1697892515.773:,-323,124,110
1697892515.773:,-308,124,110
1697892515.773:,-290,124,110
1697892515.773:,-277,124,110
1697892515.773:,-270,124,110
1697892515.773:,-265,124,110
1697892515.773:,-254,124,110
1697892515.773:,-239,124,110
1697892515.773:,-225,124,110
1697892515.773:,-221,124,110
1697892515.773:,-227,124,110
1697892515.794:,-239,124,110
1697892515.794:,-251,124,110
1697892515.794:,-258,124,110
1697892515.794:,-261,124,110
1697892515.794:,-260,124,110
1697892515.794:,-254,124,110
1697892515.794:,-245,124,110
1697892515.794:,-240,124,110
1697892515.794:,-245,124,110
1697892515.794:,-254,124,110
1697892515.794:,-258,124,110
1697892515.794:,-248,124,110
1697892515.794:,-235,124,110
1697892515.821:,-230,124,110
1697892515.821:,-239,124,110
1697892515.821:,-247,124,110
1697892515.821:,-240,124,110
1697892515.821:,-224,124,110
1697892515.821:,-217,124,110
1697892515.821:,-219,124,110
1697892515.821:,-199,124,110
1697892515.821:,-125,124,110
1697892515.821:,2,124,110
1697892515.821:,141,124,110
1697892515.821:,252,124,110
1697892515.848:,339,124,110
1697892515.848:,444,124,110
1697892515.848:,603,124,110
1697892515.848:,807,124,110
1697892515.848:,1020,124,110
1697892515.848:,1224,124,110
1697892515.848:,1413,124,110
1697892515.848:,1554,124,110
1697892515.848:,1549,124,110
1697892515.848:,1282,124,110
1697892515.848:,724,124,110
1697892515.848:,-20,124,110
1697892515.848:,-778,124,110
1697892515.873:,-1440,124,110
1697892515.873:,-2008,124,110
1697892515.873:,-2529,124,110
1697892515.873:,-2981,124,110
1697892515.873:,-3254,124,110
1697892515.873:,-3239,124,110
1697892515.873:,-2932,124,110
1697892515.873:,-2453,124,110
1697892515.873:,-1965,124,110
1697892515.873:,-1587,124,110
1697892515.873:,-1366,124,110
1697892515.873:,-1310,124,110
1697892515.898:,-1411,122,109
1697892515.898:,-1642,122,109
1697892515.898:,-1945,122,109
1697892515.898:,-2250,122,109
1697892515.898:,-2495,122,109
1697892515.898:,-2639,122,109
1697892515.898:,-2659,122,109
1697892515.898:,-2529,122,109
1697892515.898:,-2226,122,109
1697892515.898:,-1755,122,109
1697892515.898:,-1177,122,109
1697892515.898:,-594,122,109
1697892515.898:,-109,122,109
1697892515.937:,223,122,109
1697892515.937:,415,122,109
1697892515.937:,527,122,109
1697892515.937:,609,122,109
1697892515.937:,679,122,109
1697892515.937:,728,122,109
1697892515.937:,746,122,109
1697892515.937:,735,122,109
1697892515.937:,704,122,109
1697892515.937:,661,122,109
1697892515.958:,620,122,109
1697892515.958:,598,122,109
1697892515.958:,605,122,109
1697892515.958:,636,122,109
1697892515.958:,673,122,109
1697892515.958:,696,122,109
1697892515.958:,697,122,109
1697892515.958:,681,122,109
1697892515.958:,656,122,109
1697892515.958:,628,122,109
1697892515.958:,601,122,109
1697892515.958:,582,122,109
1697892515.979:,578,122,109
1697892515.979:,586,122,109
1697892515.979:,593,122,109
1697892515.979:,592,122,109
1697892515.979:,583,122,109
1697892515.979:,574,122,109
1697892515.979:,569,122,109
1697892515.979:,566,122,109
1697892515.979:,563,122,109
1697892515.979:,561,122,109
1697892515.979:,565,122,109
1697892515.979:,576,122,109
1697892515.979:,589,122,109
1697892516.000:,598,122,109
1697892516.000:,602,122,109
1697892516.000:,605,122,109
1697892516.000:,610,122,109
1697892516.000:,623,122,109
1697892516.000:,646,122,109
1697892516.000:,676,122,109
1697892516.000:,707,122,109
1697892516.000:,734,122,109
1697892516.000:,759,122,109
1697892516.000:,783,122,109
1697892516.000:,811,122,109
1697892516.021:,839,122,109
1697892516.021:,862,122,109
1697892516.021:,879,122,109
1697892516.021:,891,122,109
1697892516.021:,900,122,109
1697892516.021:,907,122,109
1697892516.021:,912,122,109
1697892516.021:,917,122,109
1697892516.021:,921,122,109
1697892516.021:,919,122,109
1697892516.021:,911,122,109
1697892516.021:,899,122,109
1697892516.021:,890,122,109
1697892516.042:,885,122,109
1697892516.042:,882,122,109
1697892516.042:,873,122,109
1697892516.042:,858,122,109
1697892516.042:,840,122,109
1697892516.042:,820,122,109
1697892516.042:,798,122,109
1697892516.042:,773,122,109
1697892516.042:,745,122,109
1697892516.042:,717,122,109
1697892516.042:,683,122,109
1697892516.042:,642,122,109
1697892516.063:,596,122,109
1697892516.063:,556,122,109
1697892516.063:,528,122,109
1697892516.063:,508,122,109
1697892516.063:,484,122,109
1697892516.063:,451,122,109
1697892516.063:,416,122,109
1697892516.063:,387,122,109
1697892516.063:,365,122,109
1697892516.063:,343,122,109
1697892516.063:,313,122,109
1697892516.063:,277,122,109
1697892516.063:,241,122,109
1697892516.094:,208,122,109
1697892516.094:,178,122,109
1697892516.094:,147,122,109
1697892516.094:,114,122,109
1697892516.094:,83,122,109
1697892516.094:,54,122,109
1697892516.094:,27,122,109
1697892516.094:,1,122,109
1697892516.094:,-25,122,109
1697892516.094:,-52,122,109
1697892516.094:,-79,122,109
1697892516.094:,-104,122,109
1697892516.116:,-125,122,109
1697892516.116:,-145,122,109
1697892516.116:,-165,122,109
1697892516.116:,-182,122,109
1697892516.116:,-193,122,109
1697892516.116:,-201,122,109
1697892516.116:,-208,122,109
1697892516.116:,-219,122,109
1697892516.116:,-228,122,109
1697892516.116:,-232,122,109
1697892516.116:,-228,122,109
1697892516.116:,-222,122,109
1697892516.116:,-222,122,109
1697892516.137:,-227,122,109
1697892516.137:,-231,122,109
1697892516.137:,-228,122,109
1697892516.137:,-221,122,109
1697892516.137:,-216,122,109
1697892516.137:,-217,122,109
1697892516.137:,-220,122,109
1697892516.137:,-224,122,109
1697892516.137:,-226,122,109
1697892516.137:,-226,122,109
1697892516.137:,-225,122,109
1697892516.137:,-222,122,109
1697892516.158:,-220,122,109
1697892516.158:,-223,122,109
1697892516.158:,-229,122,109
1697892516.158:,-232,122,109
1697892516.158:,-228,122,109
1697892516.158:,-220,122,109
1697892516.158:,-214,122,109
1697892516.158:,-216,122,109
1697892516.158:,-217,122,109
1697892516.158:,-213,122,109
1697892516.158:,-203,122,109
1697892516.158:,-194,122,109
1697892516.158:,-191,122,109
1697892516.182:,-193,122,109
1697892516.182:,-190,122,109
1697892516.182:,-178,122,109
1697892516.182:,-163,122,109
1697892516.182:,-151,122,109
1697892516.182:,-143,122,109
1697892516.182:,-132,122,109
1697892516.182:,-113,122,109
1697892516.182:,-94,122,109
1697892516.182:,-83,122,109
1697892516.182:,-80,122,109
1697892516.182:,-75,122,109
1697892516.209:,-67,122,109
1697892516.209:,-63,122,109
1697892516.209:,-67,122,109
1697892516.209:,-76,122,109
1697892516.209:,-80,122,109
1697892516.209:,-81,122,109
1697892516.209:,-86,122,109
1697892516.209:,-93,122,109
1697892516.209:,-93,122,109
1697892516.209:,-83,122,109
1697892516.209:,-75,122,109
1697892516.209:,-88,122,109
1697892516.209:,-119,122,109
1697892516.234:,-145,122,109
1697892516.235:,-150,122,109
1697892516.235:,-144,122,109
1697892516.235:,-158,122,109
1697892516.235:,-197,122,109
1697892516.235:,-239,122,109
1697892516.235:,-251,122,109
1697892516.235:,-235,122,109
1697892516.235:,-215,122,109
1697892516.235:,-213,122,109
1697892516.235:,-226,122,109
1697892516.235:,-233,122,109
1697892516.259:,-227,122,109
1697892516.259:,-220,122,109
1697892516.259:,-229,122,109
1697892516.259:,-251,122,109
1697892516.259:,-266,122,109
1697892516.259:,-261,122,109
1697892516.259:,-241,122,109
1697892516.259:,-226,122,109
1697892516.259:,-225,122,109
1697892516.259:,-229,122,109
1697892516.259:,-218,122,109
1697892516.259:,-185,122,109
1697892516.259:,-147,122,109
1697892516.289:,-128,122,109
1697892516.289:,-134,122,109
1697892516.289:,-149,122,109
1697892516.289:,-153,122,109
1697892516.289:,-141,122,109
1697892516.289:,-125,122,109
1697892516.289:,-116,122,109
1697892516.289:,-117,122,109
1697892516.289:,-118,122,109
1697892516.289:,-113,122,109
1697892516.289:,-103,122,109
1697892516.289:,-95,122,109
1697892516.314:,-92,122,109
1697892516.314:,-88,122,109
1697892516.314:,-81,122,109
1697892516.314:,-72,122,109
1697892516.314:,-65,122,109
1697892516.314:,-60,122,109
1697892516.314:,-54,122,109
1697892516.314:,-44,122,109
1697892516.314:,-28,122,109
1697892516.314:,-14,122,109
1697892516.314:,-5,122,109
1697892516.314:,11,122,109
1697892516.314:,53,122,109
1697892516.341:,134,122,109
1697892516.341:,241,122,109
1697892516.341:,346,122,109
1697892516.341:,430,122,109
1697892516.341:,504,122,109
1697892516.341:,598,122,109
1697892516.341:,730,122,109
1697892516.341:,887,122,109
1697892516.341:,1048,122,109
1697892516.341:,1210,122,109
1697892516.341:,1379,122,109
1697892516.341:,1523,122,109
1697892516.362:,1551,122,109
1697892516.362:,1360,122,109
1697892516.362:,930,122,109
1697892516.362:,362,122,109
1697892516.362:,-198,122,109
1697892516.362:,-674,122,109
1697892516.362:,-1096,122,109
1697892516.362:,-1521,122,109
1697892516.362:,-1934,122,109
1697892516.362:,-2234,122,109
1697892516.362:,-2320,122,109
1697892516.362:,-2174,122,109
1697892516.362:,-1872,122,109
1697892516.383:,-1531,121,123
1697892516.383:,-1250,121,123
1697892516.383:,-1090,121,123
1697892516.383:,-1062,121,123
1697892516.383:,-1132,121,123
1697892516.383:,-1244,121,123
1697892516.383:,-1364,121,123
1697892516.383:,-1494,121,123
1697892516.383:,-1647,121,123
1697892516.383:,-1800,121,123
1697892516.383:,-1888,121,123
1697892516.383:,-1839,121,123
1697892516.408:,-1624,121,123
1697892516.408:,-1279,121,123
1697892516.408:,-871,121,123
1697892516.408:,-471,121,123
1697892516.408:,-129,121,123
1697892516.408:,137,121,123
1697892516.408:,331,121,123
1697892516.408:,473,121,123
1697892516.408:,580,121,123
1697892516.408:,663,121,123
1697892516.408:,722,121,123
1697892516.408:,749,121,123
1697892516.408:,735,121,123
1697892516.433:,684,121,123
1697892516.433:,617,121,123
1697892516.433:,566,121,123
1697892516.433:,552,121,123
1697892516.433:,575,121,123
1697892516.433:,612,121,123
1697892516.433:,646,121,123
1697892516.433:,670,121,123
1697892516.433:,680,121,123
1697892516.433:,675,121,123
1697892516.433:,654,121,123
1697892516.433:,624,121,123
1697892516.458:,600,121,123
1697892516.458:,590,121,123
1697892516.458:,593,121,123
1697892516.458:,598,121,123
1697892516.458:,603,121,123
1697892516.458:,607,121,123
1697892516.458:,613,121,123
1697892516.458:,616,121,123
1697892516.458:,608,121,123
1697892516.458:,588,121,123
1697892516.458:,567,121,123
1697892516.458:,555,121,123
1697892516.458:,554,121,123
1697892516.483:,558,121,123
1697892516.483:,561,121,123
1697892516.483:,559,121,123
1697892516.483:,557,121,123
1697892516.483:,557,121,123
1697892516.483:,562,121,123
1697892516.483:,571,121,123
1697892516.483:,584,121,123
1697892516.483:,600,121,123
1697892516.483:,613,121,123
1697892516.483:,621,121,123
1697892516.483:,627,121,123
1697892516.511:,639,121,123
1697892516.511:,659,121,123
1697892516.511:,682,121,123
1697892516.511:,700,121,123
1697892516.511:,713,121,123
1697892516.511:,725,121,123
1697892516.511:,739,121,123
1697892516.511:,754,121,123
1697892516.511:,766,121,123
1697892516.511:,772,121,123
1697892516.511:,774,121,123
1697892516.511:,774,121,123
1697892516.511:,770,121,123
1697892516.536:,759,121,123
1697892516.536:,745,121,123
1697892516.536:,734,121,123
1697892516.536:,730,121,123
1697892516.536:,728,121,123
1697892516.536:,726,121,123
1697892516.536:,720,121,123
1697892516.536:,711,121,123
1697892516.536:,699,121,123
1697892516.536:,683,121,123
1697892516.536:,661,121,123
1697892516.536:,636,121,123
1697892516.557:,611,121,123
1697892516.557:,585,121,123
1697892516.557:,556,121,123
1697892516.557:,524,121,123
1697892516.557:,491,121,123
1697892516.557:,461,121,123
1697892516.557:,437,121,123
1697892516.557:,416,121,123
1697892516.557:,397,121,123
1697892516.557:,379,121,123
1697892516.557:,361,121,123
1697892516.557:,345,121,123
1697892516.557:,329,121,123
1697892516.578:,315,121,123
1697892516.578:,302,121,123
1697892516.578:,288,121,123
1697892516.578:,271,121,123
1697892516.578:,249,121,123
1697892516.578:,226,121,123
1697892516.578:,207,121,123
1697892516.578:,194,121,123
1697892516.578:,183,121,123
1697892516.578:,167,121,123
1697892516.578:,144,121,123
1697892516.578:,121,121,123
1697892516.607:,108,121,123
1697892516.607:,103,121,123
1697892516.607:,96,121,123
1697892516.607:,78,121,123
1697892516.607:,54,121,123
1697892516.607:,36,121,123
1697892516.607:,30,121,123
1697892516.607:,29,121,123
1697892516.607:,22,121,123
1697892516.607:,7,121,123
1697892516.607:,-7,121,123
1697892516.607:,-13,121,123
1697892516.607:,-14,121,123
1697892516.632:,-21,121,123
1697892516.632:,-32,121,123
1697892516.632:,-41,121,123
1697892516.632:,-43,121,123
1697892516.632:,-45,121,123
1697892516.632:,-53,121,123
1697892516.632:,-65,121,123
1697892516.632:,-72,121,123
1697892516.632:,-70,121,123
1697892516.632:,-64,121,123
1697892516.632:,-64,121,123
1697892516.632:,-70,121,123
1697892516.669:,-75,121,123
1697892516.669:,-76,121,123
1697892516.669:,-79,121,123
1697892516.669:,-89,121,123
1697892516.669:,-102,121,123
1697892516.669:,-106,121,123
1697892516.669:,-100,121,123
1697892516.669:,-93,121,123
1697892516.669:,-93,121,123
1697892516.669:,-103,121,123
1697892516.669:,-111,121,123
1697892516.669:,-111,121,123
1697892516.669:,-106,121,123
1697892516.692:,-105,121,123
1697892516.692:,-107,121,123
1697892516.692:,-113,121,123
1697892516.692:,-117,121,123
1697892516.692:,-119,121,123
1697892516.692:,-115,121,123
1697892516.692:,-105,121,123
1697892516.692:,-92,121,123
1697892516.692:,-83,121,123
1697892516.692:,-82,121,123
1697892516.692:,-83,121,123
1697892516.692:,-80,121,123
1697892516.713:,-75,121,123
1697892516.713:,-77,121,123
1697892516.713:,-93,121,123
1697892516.713:,-117,121,123
1697892516.713:,-137,121,123
1697892516.713:,-150,121,123
1697892516.713:,-158,121,123
1697892516.713:,-168,121,123
1697892516.713:,-176,121,123
1697892516.713:,-178,121,123
1697892516.713:,-178,121,123
1697892516.713:,-183,121,123
1697892516.713:,-196,121,123
1697892516.738:,-213,121,123
1697892516.738:,-228,121,123
1697892516.738:,-241,121,123
1697892516.738:,-257,121,123
1697892516.738:,-281,121,123
1697892516.738:,-306,121,123
1697892516.738:,-326,121,123
1697892516.738:,-333,121,123
1697892516.738:,-328,121,123
1697892516.738:,-318,121,123
1697892516.738:,-311,121,123
1697892516.738:,-310,121,123
1697892516.760:,-314,121,123
1697892516.760:,-318,121,123
1697892516.760:,-320,121,123
1697892516.760:,-321,121,123
1697892516.760:,-322,121,123
1697892516.760:,-319,121,123
1697892516.760:,-311,121,123
1697892516.760:,-299,121,123
1697892516.760:,-285,121,123
1697892516.760:,-270,121,123
1697892516.760:,-251,121,123
1697892516.760:,-228,121,123
1697892516.760:,-204,121,123
1697892516.781:,-188,121,123
1697892516.781:,-180,121,123
1697892516.781:,-178,121,123
1697892516.781:,-179,121,123
1697892516.781:,-180,121,123
1697892516.781:,-179,121,123
1697892516.781:,-174,121,123
1697892516.781:,-164,121,123
1697892516.781:,-154,121,123
1697892516.781:,-146,121,123
1697892516.781:,-138,121,123
1697892516.781:,-125,121,123
1697892516.802:,-109,121,123
1697892516.802:,-96,121,123
1697892516.802:,-89,121,123
1697892516.802:,-81,121,123
1697892516.802:,-68,121,123
1697892516.802:,-52,121,123
1697892516.802:,-40,121,123
1697892516.802:,-34,121,123
1697892516.802:,-25,121,123
1697892516.802:,-11,121,123
1697892516.802:,7,121,123
1697892516.802:,20,121,123
1697892516.802:,38,121,123
1697892516.827:,79,121,123
1697892516.827:,153,121,123
1697892516.827:,251,121,123
1697892516.827:,351,121,123
1697892516.827:,439,121,123
1697892516.827:,529,121,123
1697892516.827:,643,121,123
1697892516.827:,789,121,123
1697892516.827:,954,121,123
1697892516.827:,1122,121,123
1697892516.827:,1290,121,123
1697892516.827:,1461,121,123
1697892516.852:,1606,121,123
1697892516.852:,1651,121,123
1697892516.852:,1511,121,123
1697892516.852:,1142,121,123
1697892516.852:,583,121,123
1697892516.852:,-75,121,123
1697892516.852:,-746,121,123
1697892516.852:,-1386,121,123
1697892516.852:,-1978,121,123
1697892516.852:,-2495,121,123
1697892516.852:,-2884,121,123
1697892516.852:,-3080,121,123
1697892516.852:,-3049,121,123
1697892516.877:,-2807,123,122
1697892516.877:,-2426,123,122
1697892516.877:,-2007,123,122
1697892516.877:,-1654,123,122
1697892516.877:,-1427,123,122
1697892516.877:,-1334,123,122
1697892516.877:,-1337,123,122
1697892516.877:,-1391,123,122
1697892516.877:,-1468,123,122
1697892516.877:,-1556,123,122
1697892516.877:,-1638,123,122
1697892516.877:,-1676,123,122
1697892516.904:,-1620,123,122
1697892516.904:,-1427,123,122
1697892516.904:,-1102,123,122
1697892516.904:,-690,123,122
1697892516.904:,-262,123,122
1697892516.904:,115,123,122
1697892516.904:,402,123,122
1697892516.904:,597,123,122
1697892516.904:,721,123,122
1697892516.904:,802,123,122
1697892516.904:,857,123,122
1697892516.904:,892,123,122
1697892516.904:,906,123,122
1697892516.926:,895,123,122
1697892516.926:,867,123,122
1697892516.926:,834,123,122
1697892516.926:,809,123,122
1697892516.926:,798,123,122
1697892516.926:,801,123,122
1697892516.926:,816,123,122
1697892516.926:,837,123,122
1697892516.926:,855,123,122
1697892516.947:,862,123,122
1697892516.947:,851,123,122
1697892516.947:,829,123,122
1697892516.947:,807,123,122
1697892516.947:,789,123,122
1697892516.947:,777,123,122
1697892516.947:,770,123,122
1697892516.947:,771,123,122
1697892516.947:,778,123,122
1697892516.947:,786,123,122
1697892516.947:,786,123,122
1697892516.947:,778,123,122
1697892516.947:,764,123,122
1697892516.970:,748,123,122
1697892516.970:,735,123,122
1697892516.970:,725,123,122
1697892516.970:,721,123,122
1697892516.970:,721,123,122
1697892516.970:,725,123,122
1697892516.970:,731,123,122
1697892516.970:,742,123,122
1697892516.970:,762,123,122
1697892516.970:,785,123,122
1697892516.970:,805,123,122
1697892516.970:,820,123,122
1697892516.997:,838,123,122
1697892516.997:,866,123,122
1697892516.997:,899,123,122
1697892516.997:,928,123,122
1697892516.997:,945,123,122
1697892516.997:,958,123,122
1697892516.997:,976,123,122
1697892516.997:,1003,123,122
1697892516.997:,1029,123,122
1697892516.997:,1045,123,122
1697892516.997:,1051,123,122
1697892516.997:,1053,123,122
1697892516.997:,1058,123,122
1697892517.022:,1064,123,122
1697892517.022:,1069,123,122
1697892517.022:,1069,123,122
1697892517.022:,1067,123,122
1697892517.022:,1066,123,122
1697892517.022:,1066,123,122
1697892517.022:,1065,123,122
1697892517.022:,1062,123,122
1697892517.022:,1055,123,122
1697892517.022:,1047,123,122
1697892517.022:,1038,123,122
1697892517.022:,1028,123,122
1697892517.048:,1009,123,122
1697892517.048:,977,123,122
1697892517.048:,937,123,122
1697892517.048:,895,123,122
1697892517.048:,858,123,122
1697892517.048:,821,123,122
1697892517.048:,776,123,122
1697892517.048:,723,123,122
1697892517.048:,671,123,122
1697892517.048:,628,123,122
1697892517.048:,591,123,122
1697892517.048:,553,123,122
1697892517.048:,511,123,122
1697892517.071:,470,123,122
1697892517.071:,438,123,122
1697892517.071:,411,123,122
1697892517.071:,384,123,122
1697892517.071:,353,123,122
1697892517.071:,320,123,122
1697892517.071:,288,123,122
1697892517.071:,260,123,122
1697892517.071:,230,123,122
1697892517.071:,200,123,122
1697892517.071:,167,123,122
1697892517.071:,133,123,122
1697892517.110:,99,123,122
1697892517.110:,67,123,122
1697892517.110:,43,123,122
1697892517.110:,27,123,122
1697892517.110:,14,123,122
1697892517.110:,-2,123,122
1697892517.110:,-21,123,122
1697892517.110:,-37,123,122
1697892517.110:,-47,123,122
1697892517.110:,-54,123,122
1697892517.110:,-60,123,122
1697892517.110:,-65,123,122
1697892517.110:,-71,123,122
1697892517.131:,-77,123,122
1697892517.131:,-83,123,122
1697892517.131:,-89,123,122
1697892517.131:,-91,123,122
1697892517.131:,-88,123,122
1697892517.131:,-84,123,122
1697892517.131:,-81,123,122
1697892517.131:,-80,123,122
1697892517.131:,-77,123,122
1697892517.131:,-73,123,122
1697892517.131:,-67,123,122
1697892517.131:,-63,123,122
1697892517.152:,-61,123,122
1697892517.152:,-58,123,122
1697892517.152:,-52,123,122
1697892517.152:,-45,123,122
1697892517.152:,-41,123,122
1697892517.152:,-41,123,122
1697892517.152:,-41,123,122
1697892517.152:,-35,123,122
1697892517.152:,-25,123,122
1697892517.152:,-18,123,122
1697892517.152:,-18,123,122
1697892517.152:,-22,123,122
1697892517.152:,-24,123,122
1697892517.173:,-21,123,122
1697892517.173:,-17,123,122
1697892517.173:,-18,123,122
1697892517.173:,-25,123,122
1697892517.173:,-31,123,122
1697892517.173:,-28,123,122
1697892517.173:,-14,123,122
1697892517.173:,6,123,122
1697892517.173:,23,123,122
1697892517.173:,33,123,122
1697892517.173:,41,123,122
1697892517.173:,54,123,122
1697892517.194:,74,123,122
1697892517.194:,96,123,122
1697892517.194:,106,123,122
1697892517.194:,102,123,122
1697892517.194:,89,123,122
1697892517.194:,78,123,122
1697892517.194:,70,123,122
1697892517.194:,62,123,122
1697892517.194:,53,123,122
1697892517.194:,46,123,122
1697892517.194:,43,123,122
1697892517.194:,43,123,122
1697892517.194:,36,123,122
1697892517.217:,19,123,122
1697892517.217:,0,123,122
1697892517.217:,-16,123,122
1697892517.217:,-24,123,122
1697892517.217:,-28,123,122
1697892517.217:,-34,123,122
1697892517.217:,-44,123,122
1697892517.217:,-57,123,122
1697892517.217:,-71,123,122
1697892517.217:,-78,123,122
1697892517.217:,-75,123,122
1697892517.217:,-63,123,122
1697892517.242:,-51,123,122
1697892517.242:,-48,123,122
1697892517.242:,-54,123,122
1697892517.242:,-62,123,122
1697892517.242:,-69,123,122
1697892517.242:,-73,123,122
1697892517.242:,-74,123,122
1697892517.242:,-73,123,122
1697892517.242:,-70,123,122
1697892517.242:,-66,123,122
1697892517.242:,-60,123,122
1697892517.242:,-48,123,122
1697892517.242:,-31,123,122
1697892517.267:,-12,123,122
1697892517.267:,2,123,122
1697892517.267:,13,123,122
1697892517.267:,22,123,122
1697892517.267:,32,123,122
1697892517.267:,35,123,122
1697892517.267:,30,123,122
1697892517.267:,21,123,122
1697892517.267:,23,123,122
1697892517.267:,40,123,122
1697892517.267:,60,123,122
1697892517.267:,69,123,122
1697892517.295:,69,123,122
1697892517.295:,73,123,122
1697892517.295:,88,123,122
1697892517.295:,107,123,122
1697892517.295:,121,123,122
1697892517.295:,128,123,122
1697892517.295:,137,123,122
1697892517.295:,148,123,122
1697892517.295:,154,123,122
1697892517.295:,151,123,122
1697892517.295:,150,123,122
1697892517.295:,158,123,122
1697892517.295:,169,123,122
1697892517.322:,173,123,122
1697892517.322:,181,123,122
1697892517.322:,218,123,122
1697892517.322:,295,123,122
1697892517.322:,395,123,122
1697892517.322:,493,123,122
1697892517.322:,582,123,122
1697892517.322:,685,123,122
1697892517.322:,825,123,122
1697892517.322:,1002,123,122
1697892517.322:,1204,123,122
1697892517.322:,1426,123,122
1697892517.343:,1665,123,122
1697892517.343:,1890,123,122
1697892517.343:,2030,123,122
1697892517.343:,1997,123,122
1697892517.343:,1736,123,122
1697892517.343:,1249,123,122
1697892517.343:,580,123,122
1697892517.343:,-207,123,122
1697892517.343:,-1048,123,122
1697892517.343:,-1875,123,122
1697892517.343:,-2614,123,122
1697892517.343:,-3189,123,122
1697892517.343:,-3535,123,122
1697892517.364:,-3618,124,122
1697892517.364:,-3457,124,122
1697892517.364:,-3113,124,122
1697892517.364:,-2668,124,122
1697892517.364:,-2204,124,122
1697892517.364:,-1798,124,122
1697892517.364:,-1523,124,122
1697892517.364:,-1430,124,122
1697892517.364:,-1505,124,122
1697892517.364:,-1673,124,122
1697892517.364:,-1835,124,122
1697892517.364:,-1927,124,122
1697892517.409:,-1930,124,122
1697892517.409:,-1845,124,122
1697892517.409:,-1649,124,122
1697892517.409:,-1314,124,122
1697892517.409:,-847,124,122
1697892517.409:,-303,124,122
1697892517.409:,227,124,122
1697892517.409:,660,124,122
1697892517.409:,951,124,122
1697892517.409:,1100,124,122
1697892517.409:,1147,124,122
1697892517.409:,1144,124,122
1697892517.409:,1128,124,122
1697892517.430:,1113,124,122
1697892517.430:,1096,124,122
1697892517.430:,1074,124,122
1697892517.430:,1055,124,122
1697892517.430:,1046,124,122
1697892517.430:,1046,124,122
1697892517.430:,1052,124,122
1697892517.430:,1064,124,122
1697892517.430:,1080,124,122
1697892517.430:,1095,124,122
1697892517.430:,1098,124,122
1697892517.430:,1085,124,122
1697892517.451:,1062,124,122
1697892517.451:,1038,124,122
1697892517.451:,1019,124,122
1697892517.451:,1002,124,122
1697892517.451:,987,124,122
1697892517.451:,975,124,122
1697892517.451:,967,124,122
1697892517.451:,961,124,122
1697892517.451:,956,124,122
1697892517.451:,949,124,122
1697892517.451:,937,124,122
1697892517.451:,922,124,122
1697892517.451:,910,124,122
1697892517.472:,907,124,122
1697892517.472:,915,124,122
1697892517.472:,926,124,122
1697892517.472:,932,124,122
1697892517.472:,933,124,122
1697892517.472:,934,124,122
1697892517.472:,945,124,122
1697892517.472:,964,124,122
1697892517.472:,986,124,122
1697892517.472:,1006,124,122
1697892517.472:,1026,124,122
1697892517.472:,1050,124,122
1697892517.493:,1081,124,122
1697892517.493:,1118,124,122
1697892517.493:,1159,124,122
1697892517.493:,1201,124,122
1697892517.493:,1240,124,122
1697892517.493:,1277,124,122
1697892517.493:,1314,124,122
1697892517.493:,1353,124,122
1697892517.493:,1391,124,122
1697892517.493:,1423,124,122
1697892517.493:,1443,124,122
1697892517.493:,1456,124,122
1697892517.493:,1469,124,122
1697892517.514:,1482,124,122
1697892517.514:,1486,124,122
1697892517.514:,1473,124,122
1697892517.514:,1448,124,122
1697892517.514:,1425,124,122
1697892517.514:,1414,124,122
1697892517.514:,1410,124,122
1697892517.514:,1395,124,122
1697892517.514:,1362,124,122
1697892517.514:,1320,124,122
1697892517.514:,1285,124,122
1697892517.514:,1259,124,122
1697892517.538:,1230,124,122
1697892517.538:,1185,124,122
1697892517.538:,1122,124,122
1697892517.538:,1053,124,122
1697892517.538:,986,124,122
1697892517.538:,924,124,122
1697892517.538:,863,124,122
1697892517.538:,799,124,122
1697892517.538:,733,124,122
1697892517.538:,666,124,122
1697892517.538:,602,124,122
1697892517.538:,539,124,122
1697892517.538:,476,124,122
1697892517.563:,414,124,122
1697892517.563:,353,124,122
1697892517.563:,293,124,122
1697892517.563:,232,124,122
1697892517.563:,165,124,122
1697892517.563:,92,124,122
1697892517.563:,21,124,122
1697892517.563:,-40,124,122
1697892517.563:,-88,124,122
1697892517.563:,-130,124,122
1697892517.563:,-175,124,122
1697892517.563:,-222,124,122
1697892517.599:,-261,124,122
1697892517.599:,-285,124,122
1697892517.599:,-295,124,122
1697892517.599:,-303,124,122
1697892517.599:,-321,124,122
1697892517.599:,-341,124,122
1697892517.599:,-355,124,122
1697892517.599:,-356,124,122
1697892517.599:,-351,124,122
1697892517.599:,-350,124,122
1697892517.599:,-355,124,122
1697892517.599:,-361,124,122
1697892517.599:,-363,124,122
1697892517.620:,-355,124,122
1697892517.620:,-337,124,122
1697892517.620:,-313,124,122
1697892517.620:,-293,124,122
1697892517.620:,-292,124,122
1697892517.620:,-307,124,122
1697892517.620:,-318,124,122
1697892517.620:,-309,124,122
1697892517.620:,-283,124,122
1697892517.620:,-267,124,122
1697892517.620:,-275,124,122
1697892517.620:,-299,124,122
1697892517.641:,-311,124,122
1697892517.641:,-300,124,122
1697892517.641:,-277,124,122
1697892517.641:,-260,124,122
1697892517.641:,-256,124,122
1697892517.641:,-259,124,122
1697892517.641:,-264,124,122
1697892517.641:,-267,124,122
1697892517.641:,-270,124,122
1697892517.641:,-268,124,122
1697892517.641:,-263,124,122
1697892517.641:,-258,124,122
1697892517.641:,-257,124,122
1697892517.662:,-262,124,122
1697892517.662:,-266,124,122
1697892517.662:,-264,124,122
1697892517.662:,-252,124,122
1697892517.662:,-235,124,122
1697892517.662:,-216,124,122
1697892517.662:,-198,124,122
1697892517.662:,-185,124,122
1697892517.662:,-171,124,122
1697892517.662:,-154,124,122
1697892517.662:,-133,124,122
1697892517.662:,-112,124,122
1697892517.687:,-95,124,122
1697892517.687:,-78,124,122
1697892517.687:,-58,124,122
1697892517.687:,-37,124,122
1697892517.687:,-22,124,122
1697892517.687:,-18,124,122
1697892517.687:,-25,124,122
1697892517.687:,-36,124,122
1697892517.687:,-43,124,122
1697892517.687:,-42,124,122
1697892517.687:,-37,124,122
1697892517.687:,-38,124,122
1697892517.687:,-51,124,122
1697892517.712:,-64,124,122
1697892517.712:,-62,124,122
1697892517.712:,-49,124,122
1697892517.712:,-42,124,122
1697892517.712:,-55,124,122
1697892517.712:,-78,124,122
1697892517.712:,-89,124,122
1697892517.712:,-82,124,122
1697892517.712:,-77,124,122
1697892517.712:,-93,124,122
1697892517.712:,-125,124,122
1697892517.712:,-146,124,122
1697892517.737:,-141,124,122
1697892517.737:,-122,124,122
1697892517.737:,-116,124,122
1697892517.737:,-129,124,122
1697892517.737:,-147,124,122
1697892517.737:,-154,124,122
1697892517.737:,-147,124,122
1697892517.737:,-139,124,122
1697892517.737:,-140,124,122
1697892517.737:,-147,124,122
1697892517.737:,-151,124,122
1697892517.737:,-144,124,122
1697892517.737:,-128,124,122
1697892517.786:,-110,124,122
1697892517.786:,-94,124,122
1697892517.786:,-79,124,122
1697892517.786:,-62,124,122
1697892517.786:,-44,124,122
1697892517.786:,-30,124,122
1697892517.786:,-25,124,122
1697892517.786:,-27,124,122
1697892517.786:,-27,124,122
1697892517.786:,-20,124,122
1697892517.786:,-11,124,122
1697892517.786:,-4,124,122
1697892517.807:,2,124,122
1697892517.807:,16,124,122
1697892517.807:,34,124,122
1697892517.807:,45,124,122
1697892517.807:,40,124,122
1697892517.807:,31,124,122
1697892517.807:,39,124,122
1697892517.807:,67,124,122
1697892517.807:,93,124,122
1697892517.807:,92,124,122
1697892517.807:,71,124,122
1697892517.807:,61,124,122
1697892517.807:,79,124,122
1697892517.807:,103,124,122
1697892517.807:,102,124,122
1697892517.807:,83,124,122
1697892517.807:,97,124,122
1697892517.807:,176,124,122
1697892517.807:,305,124,122
1697892517.807:,433,124,122
1697892517.807:,532,124,122
1697892517.807:,623,124,122
1697892517.807:,754,124,122
1697892517.807:,942,124,122
1697892517.807:,1171,124,122
1697892517.830:,1417,124,122
1697892517.830:,1666,124,122
1697892517.830:,1895,124,122
1697892517.830:,2036,124,122
1697892517.830:,1985,124,122
1697892517.830:,1662,124,122
1697892517.830:,1076,124,122
1697892517.830:,318,124,122
1697892517.830:,-507,124,122
1697892517.830:,-1341,124,122
1697892517.830:,-2166,124,122
1697892517.830:,-2937,124,122
1697892517.830:,-3543,124,122
1697892517.854:,-3855,122,122
1697892517.854:,-3828,122,122
1697892517.854:,-3539,122,122
1697892517.854:,-3127,122,122
1697892517.854:,-2689,122,122
1697892517.854:,-2263,122,122
1697892517.854:,-1883,122,122
1697892517.855:,-1628,122,122
1697892517.855:,-1583,122,122
1697892517.855:,-1746,122,122
1697892517.855:,-2012,122,122
1697892517.855:,-2239,122,122
1697892517.882:,-2351,122,122
1697892517.882:,-2345,122,122
1697892517.882:,-2234,122,122
1697892517.882:,-1995,122,122
1697892517.882:,-1594,122,122
1697892517.882:,-1041,122,122
1697892517.882:,-415,122,122
1697892517.882:,174,122,122
1697892517.882:,643,122,122
1697892517.882:,952,122,122
1697892517.882:,1111,122,122
1697892517.882:,1160,122,122
1697892517.882:,1153,122,122
1697892517.907:,1134,122,122
1697892517.907:,1121,122,122
1697892517.907:,1110,122,122
1697892517.907:,1091,122,122
1697892517.907:,1066,122,122
1697892517.907:,1047,122,122
1697892517.907:,1043,122,122
1697892517.907:,1052,122,122
1697892517.907:,1070,122,122
1697892517.907:,1091,122,122
1697892517.907:,1113,122,122
1697892517.907:,1126,122,122
1697892517.932:,1123,122,122
1697892517.932:,1106,122,122
1697892517.932:,1082,122,122
1697892517.932:,1062,122,122
1697892517.932:,1047,122,122
1697892517.932:,1037,122,122
1697892517.932:,1031,122,122
1697892517.932:,1029,122,122
1697892517.932:,1027,122,122
1697892517.932:,1021,122,122
1697892517.953:,1014,122,122
1697892517.953:,1010,122,122
1697892517.953:,1008,122,122
1697892517.953:,1000,122,122
1697892517.953:,984,122,122
1697892517.953:,975,122,122
1697892517.953:,987,122,122
1697892517.953:,1018,122,122
1697892517.953:,1048,122,122
1697892517.953:,1060,122,122
1697892517.953:,1063,122,122
1697892517.953:,1075,122,122
1697892517.953:,1102,122,122
1697892517.977:,1134,122,122
1697892517.977:,1163,122,122
1697892517.977:,1198,122,122
1697892517.977:,1245,122,122
1697892517.977:,1292,122,122
1697892517.977:,1320,122,122
1697892517.977:,1335,122,122
1697892517.977:,1363,122,122
1697892517.977:,1418,122,122
1697892517.977:,1482,122,122
1697892517.977:,1519,122,122
1697892517.977:,1524,122,122
1697892518.002:,1522,122,122
1697892518.002:,1539,122,122
1697892518.002:,1569,122,122
1697892518.002:,1583,122,122
1697892518.002:,1568,122,122
1697892518.002:,1539,122,122
1697892518.002:,1519,122,122
1697892518.002:,1513,122,122
1697892518.002:,1509,122,122
1697892518.002:,1496,122,122
1697892518.002:,1468,122,122
1697892518.002:,1432,122,122
1697892518.002:,1396,122,122
1697892518.023:,1362,122,122
1697892518.023:,1335,122,122
1697892518.023:,1304,122,122
1697892518.023:,1262,122,122
1697892518.023:,1201,122,122
1697892518.023:,1130,122,122
1697892518.023:,1062,122,122
1697892518.023:,1008,122,122
1697892518.023:,965,122,122
1697892518.023:,914,122,122
1697892518.023:,842,122,122
1697892518.023:,752,122,122
1697892518.046:,669,122,122
1697892518.046:,610,122,122
1697892518.046:,571,122,122
1697892518.046:,530,122,122
1697892518.046:,463,122,122
1697892518.046:,381,122,122
1697892518.046:,311,122,122
1697892518.046:,268,122,122
1697892518.046:,235,122,122
1697892518.046:,185,122,122
1697892518.046:,110,122,122
1697892518.046:,30,122,122
1697892518.046:,-29,122,122
1697892518.076:,-68,122,122
1697892518.076:,-104,122,122
1697892518.076:,-154,122,122
1697892518.076:,-215,122,122
1697892518.076:,-270,122,122
1697892518.076:,-307,122,122
1697892518.076:,-327,122,122
1697892518.076:,-339,122,122
1697892518.076:,-357,122,122
1697892518.076:,-379,122,122
1697892518.076:,-401,122,122
1697892518.076:,-414,122,122
1697892518.100:,-414,122,122
1697892518.100:,-409,122,122
1697892518.100:,-404,122,122
1697892518.100:,-402,122,122
1697892518.100:,-398,122,122
1697892518.100:,-391,122,122
1697892518.100:,-384,122,122
1697892518.100:,-375,122,122
1697892518.100:,-361,122,122
1697892518.100:,-342,122,122
1697892518.100:,-325,122,122
1697892518.100:,-318,122,122
1697892518.100:,-316,122,122
1697892518.125:,-309,122,122
1697892518.125:,-295,122,122
1697892518.125:,-285,122,122
1697892518.125:,-289,122,122
1697892518.125:,-302,122,122
1697892518.125:,-311,122,122
1697892518.125:,-306,122,122
1697892518.125:,-297,122,122
1697892518.125:,-296,122,122
1697892518.125:,-299,122,122
1697892518.125:,-300,122,122
1697892518.125:,-296,122,122
1697892518.159:,-292,122,122
1697892518.159:,-291,122,122
1697892518.159:,-289,122,122
1697892518.159:,-282,122,122
1697892518.159:,-276,122,122
1697892518.159:,-280,122,122
1697892518.159:,-293,122,122
1697892518.159:,-300,122,122
1697892518.159:,-291,122,122
1697892518.159:,-275,122,122
1697892518.159:,-268,122,122
1697892518.159:,-273,122,122
1697892518.159:,-279,122,122
1697892518.180:,-270,122,122
1697892518.180:,-246,122,122
1697892518.180:,-222,122,122
1697892518.180:,-212,122,122
1697892518.180:,-215,122,122
1697892518.180:,-215,122,122
1697892518.180:,-202,122,122
1697892518.180:,-176,122,122
1697892518.180:,-152,122,122
1697892518.180:,-140,122,122
1697892518.180:,-138,122,122
1697892518.180:,-137,122,122
1697892518.201:,-131,122,122
1697892518.201:,-127,122,122
1697892518.201:,-133,122,122
1697892518.201:,-147,122,122
1697892518.201:,-159,122,122
1697892518.201:,-164,122,122
1697892518.201:,-168,122,122
1697892518.201:,-177,122,122
1697892518.201:,-187,122,122
1697892518.201:,-192,122,122
1697892518.201:,-189,122,122
1697892518.201:,-187,122,122
1697892518.201:,-192,122,122
1697892518.222:,-202,122,122
1697892518.222:,-211,122,122
1697892518.222:,-221,122,122
1697892518.222:,-237,122,122
1697892518.222:,-260,122,122
1697892518.222:,-281,122,122
1697892518.222:,-295,122,122
1697892518.222:,-304,122,122
1697892518.222:,-318,122,122
1697892518.222:,-340,122,122
1697892518.222:,-357,122,122
1697892518.222:,-358,122,122
1697892518.244:,-344,122,122
1697892518.244:,-330,122,122
1697892518.244:,-330,122,122
1697892518.244:,-345,122,122
1697892518.244:,-358,122,122
1697892518.244:,-353,122,122
1697892518.244:,-331,122,122
1697892518.244:,-308,122,122
1697892518.244:,-296,122,122
1697892518.244:,-294,122,122
1697892518.244:,-289,122,122
1697892518.244:,-273,122,122
1697892518.244:,-252,122,122
1697892518.273:,-240,122,122
1697892518.273:,-242,122,122
1697892518.273:,-250,122,122
1697892518.273:,-253,122,122
1697892518.273:,-250,122,122
1697892518.273:,-250,122,122
1697892518.273:,-256,122,122
1697892518.273:,-262,122,122
1697892518.273:,-256,122,122
1697892518.273:,-239,122,122
1697892518.273:,-223,122,122
1697892518.273:,-217,122,122
1697892518.298:,-217,122,122
1697892518.298:,-215,122,122
1697892518.298:,-206,122,122
1697892518.298:,-198,122,122
1697892518.298:,-196,122,122
1697892518.298:,-198,122,122
1697892518.298:,-195,122,122
1697892518.298:,-189,122,122
1697892518.298:,-190,122,122
1697892518.298:,-205,122,122
1697892518.298:,-217,122,122
1697892518.298:,-190,122,122
1697892518.298:,-106,122,122
1697892518.323:,21,122,122
1697892518.323:,149,122,122
1697892518.323:,250,122,122
1697892518.323:,336,122,122
1697892518.323:,448,122,122
1697892518.323:,614,122,122
1697892518.323:,822,122,122
1697892518.323:,1037,122,122
1697892518.323:,1238,122,122
1697892518.323:,1420,122,122
1697892518.323:,1552,122,122
1697892518.323:,1545,122,122
1697892518.348:,1283,122,122
1697892518.348:,723,122,122
1697892518.348:,-44,122,122
1697892518.348:,-850,122,122
1697892518.348:,-1569,122,122
1697892518.348:,-2192,122,122
1697892518.348:,-2760,122,122
1697892518.348:,-3253,122,122
1697892518.348:,-3557,122,122
1697892518.348:,-3562,122,122
1697892518.348:,-3265,122,122
1697892518.348:,-2789,122,122
1697892518.348:,-2295,122,122
1697892518.375:,-1888,120,122
1697892518.375:,-1613,120,122
1697892518.375:,-1491,120,122
1697892518.375:,-1537,120,122
1697892518.375:,-1737,120,122
1697892518.375:,-2027,120,122
1697892518.375:,-2317,120,122
1697892518.375:,-2542,120,122
1697892518.375:,-2671,120,122
1697892518.375:,-2690,120,122
1697892518.375:,-2571,120,122
1697892518.375:,-2278,120,122
1697892518.397:,-1810,120,122
1697892518.397:,-1232,120,122
1697892518.397:,-654,120,122
1697892518.397:,-175,120,122
1697892518.397:,159,120,122
1697892518.397:,362,120,122
1697892518.397:,480,120,122
1697892518.397:,555,120,122
1697892518.397:,611,120,122
1697892518.397:,654,120,122
1697892518.397:,679,120,122
1697892518.397:,680,120,122
1697892518.397:,658,120,122
1697892518.419:,623,120,122
1697892518.419:,593,120,122
1697892518.419:,580,120,122
1697892518.419:,588,120,122
1697892518.419:,612,120,122
1697892518.419:,646,120,122
1697892518.419:,679,120,122
1697892518.419:,700,120,122
1697892518.419:,696,120,122
1697892518.419:,669,120,122
1697892518.419:,634,120,122
1697892518.419:,608,120,122
1697892518.441:,597,120,122
1697892518.441:,595,120,122
1697892518.441:,597,120,122
1697892518.441:,598,120,122
1697892518.441:,599,120,122
1697892518.441:,596,120,122
1697892518.441:,585,120,122
1697892518.441:,569,120,122
1697892518.441:,555,120,122
1697892518.441:,548,120,122
1697892518.441:,551,120,122
1697892518.441:,558,120,122
1697892518.441:,565,120,122
1697892518.469:,570,120,122
1697892518.469:,573,120,122
1697892518.469:,580,120,122
1697892518.469:,593,120,122
1697892518.469:,612,120,122
1697892518.469:,630,120,122
1697892518.469:,644,120,122
1697892518.469:,655,120,122
1697892518.469:,672,120,122
1697892518.469:,698,120,122
1697892518.469:,729,120,122
1697892518.469:,756,120,122
1697892518.505:,775,120,122
1697892518.505:,789,120,122
1697892518.505:,803,120,122
1697892518.505:,820,120,122
1697892518.505:,839,120,122
1697892518.505:,858,120,122
1697892518.505:,875,120,122
1697892518.505:,887,120,122
1697892518.505:,891,120,122
1697892518.505:,890,120,122
1697892518.505:,891,120,122
1697892518.505:,894,120,122
1697892518.505:,894,120,122
1697892518.527:,886,120,122
1697892518.528:,871,120,122
1697892518.528:,853,120,122
1697892518.528:,839,120,122
1697892518.528:,828,120,122
1697892518.528:,813,120,122
1697892518.528:,791,120,122
1697892518.528:,762,120,122
1697892518.528:,731,120,122
1697892518.528:,702,120,122
1697892518.528:,671,120,122
1697892518.528:,636,120,122
1697892518.549:,597,120,122
1697892518.549:,556,120,122
1697892518.549:,517,120,122
1697892518.549:,481,120,122
1697892518.549:,447,120,122
1697892518.549:,415,120,122
1697892518.549:,388,120,122
1697892518.549:,366,120,122
1697892518.549:,342,120,122
1697892518.549:,310,120,122
1697892518.549:,273,120,122
1697892518.549:,238,120,122
1697892518.549:,210,120,122
1697892518.570:,184,120,122
1697892518.570:,150,120,122
1697892518.570:,108,120,122
1697892518.570:,67,120,122
1697892518.570:,34,120,122
1697892518.570:,9,120,122
1697892518.570:,-15,120,122
1697892518.570:,-43,120,122
1697892518.570:,-74,120,122
1697892518.570:,-103,120,122
1697892518.570:,-131,120,122
1697892518.570:,-159,120,122
1697892518.595:,-186,120,122
1697892518.595:,-211,120,122
1697892518.595:,-234,120,122
1697892518.595:,-259,120,122
1697892518.595:,-283,120,122
1697892518.595:,-306,120,122
1697892518.595:,-323,120,122
1697892518.595:,-336,120,122
1697892518.595:,-347,120,122
1697892518.595:,-359,120,122
1697892518.595:,-372,120,122
1697892518.595:,-383,120,122
1697892518.595:,-385,120,122
1697892518.620:,-379,120,122
1697892518.620:,-372,120,122
1697892518.620:,-372,120,122
1697892518.620:,-376,120,122
1697892518.620:,-375,120,122
1697892518.620:,-365,120,122
1697892518.620:,-352,120,122
1697892518.620:,-346,120,122
1697892518.620:,-352,120,122
1697892518.620:,-361,120,122
1697892518.620:,-363,120,122
1697892518.620:,-359,120,122
1697892518.659:,-358,120,122
1697892518.659:,-361,120,122
1697892518.659:,-365,120,122
1697892518.659:,-361,120,122
1697892518.659:,-351,120,122
1697892518.659:,-344,120,122
1697892518.659:,-343,120,122
1697892518.659:,-344,120,122
1697892518.659:,-338,120,122
1697892518.659:,-324,120,122
1697892518.659:,-306,120,122
1697892518.659:,-294,120,122
1697892518.659:,-291,120,122
1697892518.680:,-290,120,122
1697892518.680:,-280,120,122
1697892518.680:,-260,120,122
1697892518.680:,-237,120,122
1697892518.680:,-222,120,122
1697892518.680:,-218,120,122
1697892518.680:,-219,120,122
1697892518.680:,-212,120,122
1697892518.680:,-197,120,122
1697892518.680:,-183,120,122
1697892518.680:,-177,120,122
1697892518.680:,-175,120,122
1697892518.701:,-164,120,122
1697892518.701:,-142,120,122
1697892518.701:,-117,120,122
1697892518.701:,-97,120,122
1697892518.701:,-83,120,122
1697892518.701:,-71,120,122
1697892518.701:,-58,120,122
1697892518.701:,-52,120,122
1697892518.701:,-61,120,122
1697892518.701:,-80,120,122
1697892518.701:,-99,120,122
1697892518.701:,-113,120,122
1697892518.701:,-121,120,122
1697892518.722:,-125,120,122
1697892518.722:,-126,120,122
1697892518.722:,-123,120,122
1697892518.722:,-122,120,122
1697892518.722:,-130,120,122
1697892518.722:,-142,120,122
1697892518.722:,-148,120,122
1697892518.722:,-144,120,122
1697892518.722:,-139,120,122
1697892518.722:,-147,120,122
1697892518.722:,-168,120,122
1697892518.722:,-189,120,122
1697892518.743:,-195,120,122
1697892518.743:,-187,120,122
1697892518.743:,-179,120,122
1697892518.743:,-178,120,122
1697892518.743:,-183,120,122
1697892518.743:,-185,120,122
1697892518.743:,-183,120,122
1697892518.743:,-185,120,122
1697892518.743:,-196,120,122
1697892518.743:,-214,120,122
1697892518.743:,-225,120,122
1697892518.743:,-221,120,122
1697892518.743:,-205,120,122
1697892518.769:,-188,120,122
1697892518.769:,-176,120,122
1697892518.769:,-161,120,122
1697892518.769:,-136,120,122
1697892518.769:,-104,120,122
1697892518.769:,-75,120,122
1697892518.769:,-60,120,122
1697892518.769:,-59,120,122
1697892518.769:,-66,120,122
1697892518.769:,-72,120,122
1697892518.769:,-75,120,122
1697892518.769:,-77,120,122
1697892518.793:,-76,120,122
1697892518.793:,-74,120,122
1697892518.793:,-69,120,122
1697892518.793:,-63,120,122
1697892518.793:,-55,120,122
1697892518.793:,-45,120,122
1697892518.793:,-36,120,122
1697892518.793:,-29,120,122
1697892518.793:,-23,120,122
1697892518.793:,-18,120,122
1697892518.793:,-13,120,122
1697892518.793:,-6,120,122
1697892518.793:,2,120,122
1697892518.818:,11,120,122
1697892518.818:,21,120,122
1697892518.818:,31,120,122
1697892518.818:,40,120,122
1697892518.818:,56,120,122
1697892518.818:,92,120,122
1697892518.818:,160,120,122
1697892518.818:,257,120,122
1697892518.818:,362,120,122
1697892518.818:,452,120,122
1697892518.818:,527,120,122
1697892518.818:,610,120,122
1697892518.843:,728,120,122
1697892518.843:,881,120,122
1697892518.843:,1045,120,122
1697892518.843:,1205,120,122
1697892518.843:,1370,120,122
1697892518.843:,1532,120,122
1697892518.843:,1625,120,122
1697892518.843:,1532,120,122
1697892518.843:,1186,120,122
1697892518.843:,642,120,122
1697892518.843:,51,120,122
1697892518.843:,-467,120,122
1697892518.843:,-904,120,122
1697892518.879:,-1327,120,122
1697892518.879:,-1757,120,122
1697892518.879:,-2117,120,122
1697892518.879:,-2291,120,122
1697892518.879:,-2223,120,122
1697892518.879:,-1962,120,122
1697892518.879:,-1622,120,122
1697892518.879:,-1311,120,122
1697892518.879:,-1101,120,122
1697892518.879:,-1019,120,122
1697892518.879:,-1050,120,122
1697892518.879:,-1149,120,122
1697892518.904:,-1278,119,121
1697892518.904:,-1422,119,121
1697892518.904:,-1582,119,121
1697892518.904:,-1740,119,121
1697892518.904:,-1848,119,121
1697892518.904:,-1846,119,121
1697892518.904:,-1699,119,121
1697892518.904:,-1413,119,121
1697892518.904:,-1028,119,121
1697892518.904:,-605,119,121
1697892518.904:,-211,119,121
1697892518.904:,103,119,121
1697892518.904:,321,119,121
1697892518.927:,471,119,121
1697892518.927:,589,119,121
1697892518.927:,695,119,121
1697892518.927:,776,119,121
1697892518.927:,818,119,121
1697892518.927:,815,119,121
1697892518.927:,774,119,121
1697892518.927:,714,119,121
1697892518.927:,653,119,121
1697892518.927:,613,119,121
1697892518.927:,609,119,121
1697892518.927:,640,119,121
1697892518.948:,684,119,121
1697892518.948:,718,119,121
1697892518.948:,730,119,121
1697892518.948:,723,119,121
1697892518.948:,703,119,121
1697892518.948:,678,119,121
1697892518.948:,654,119,121
1697892518.948:,636,119,121
1697892518.948:,628,119,121
1697892518.948:,630,119,121
1697892518.969:,635,119,121
1697892518.969:,637,119,121
1697892518.969:,632,119,121
1697892518.969:,625,119,121
1697892518.969:,618,119,121
1697892518.969:,609,119,121
1697892518.969:,598,119,121
1697892518.969:,587,119,121
1697892518.969:,579,119,121
1697892518.969:,577,119,121
1697892518.969:,580,119,121
1697892518.969:,587,119,121
1697892518.990:,594,119,121
1697892518.990:,600,119,121
1697892518.990:,602,119,121
1697892518.990:,601,119,121
1697892518.990:,600,119,121
1697892518.990:,604,119,121
1697892518.990:,616,119,121
1697892518.990:,627,119,121
1697892518.990:,631,119,121
1697892518.990:,630,119,121
1697892518.990:,633,119,121
1697892518.990:,648,119,121
1697892518.990:,672,119,121
1697892519.011:,692,119,121
1697892519.011:,700,119,121
1697892519.011:,701,119,121
1697892519.011:,707,119,121
1697892519.011:,720,119,121
1697892519.011:,729,119,121
1697892519.011:,728,119,121
1697892519.011:,720,119,121
1697892519.011:,714,119,121
1697892519.011:,714,119,121
1697892519.011:,712,119,121
1697892519.011:,704,119,121
1697892519.034:,693,119,121
1697892519.034:,687,119,121
1697892519.034:,686,119,121
1697892519.034:,683,119,121
1697892519.034:,670,119,121
1697892519.034:,650,119,121
1697892519.034:,630,119,121
1697892519.034:,611,119,121
1697892519.034:,589,119,121
1697892519.034:,563,119,121
1697892519.034:,535,119,121
1697892519.034:,508,119,121
1697892519.034:,482,119,121
1697892519.056:,457,119,121
1697892519.056:,436,119,121
1697892519.056:,422,119,121
1697892519.056:,412,119,121
1697892519.056:,399,119,121
1697892519.056:,379,119,121
1697892519.056:,353,119,121
1697892519.056:,326,119,121
1697892519.056:,305,119,121
1697892519.056:,290,119,121
1697892519.056:,278,119,121
1697892519.056:,264,119,121
1697892519.077:,244,119,121
1697892519.077:,222,119,121
1697892519.077:,204,119,121
1697892519.077:,193,119,121
1697892519.077:,186,119,121
1697892519.077:,175,119,121
1697892519.077:,157,119,121
1697892519.077:,134,119,121
1697892519.077:,111,119,121
1697892519.077:,90,119,121
1697892519.077:,74,119,121
1697892519.077:,61,119,121
1697892519.077:,47,119,121
1697892519.102:,29,119,121
1697892519.102:,8,119,121
1697892519.102:,-7,119,121
1697892519.102:,-11,119,121
1697892519.102:,-8,119,121
1697892519.102:,-12,119,121
1697892519.102:,-29,119,121
1697892519.102:,-49,119,121
1697892519.102:,-60,119,121
1697892519.102:,-58,119,121
1697892519.102:,-57,119,121
1697892519.102:,-67,119,121
1697892519.127:,-86,119,121
1697892519.127:,-102,119,121
1697892519.127:,-108,119,121
1697892519.127:,-104,119,121
1697892519.127:,-101,119,121
1697892519.127:,-102,119,121
1697892519.127:,-108,119,121
1697892519.127:,-116,119,121
1697892519.127:,-125,119,121
1697892519.127:,-131,119,121
1697892519.127:,-133,119,121
1697892519.127:,-133,119,121
1697892519.127:,-133,119,121
1697892519.154:,-137,119,121
1697892519.154:,-144,119,121
1697892519.154:,-151,119,121
1697892519.154:,-158,119,121
1697892519.154:,-164,119,121
1697892519.154:,-167,119,121
1697892519.154:,-165,119,121
1697892519.154:,-163,119,121
1697892519.154:,-166,119,121
1697892519.154:,-174,119,121
1697892519.154:,-181,119,121
1697892519.154:,-178,119,121
1697892519.179:,-167,119,121
1697892519.179:,-159,119,121
1697892519.179:,-159,119,121
1697892519.179:,-162,119,121
1697892519.179:,-163,119,121
1697892519.179:,-159,119,121
1697892519.179:,-154,119,121
1697892519.179:,-150,119,121
1697892519.179:,-142,119,121
1697892519.179:,-129,119,121
1697892519.179:,-118,119,121
1697892519.179:,-114,119,121
1697892519.179:,-113,119,121
1697892519.204:,-106,119,121
1697892519.204:,-93,119,121
1697892519.204:,-87,119,121
1697892519.204:,-100,119,121
1697892519.204:,-126,119,121
1697892519.204:,-149,119,121
1697892519.204:,-157,119,121
1697892519.204:,-157,119,121
1697892519.204:,-159,119,121
1697892519.204:,-167,119,121
1697892519.204:,-174,119,121
1697892519.204:,-174,119,121
1697892519.232:,-175,119,121
1697892519.232:,-185,119,121
1697892519.232:,-203,119,121
1697892519.232:,-220,119,121
1697892519.232:,-228,119,121
1697892519.232:,-233,119,121
1697892519.232:,-245,119,121
1697892519.232:,-267,119,121
1697892519.232:,-285,119,121
1697892519.232:,-287,119,121
1697892519.232:,-271,119,121
1697892519.232:,-250,119,121
1697892519.232:,-240,119,121
1697892519.257:,-243,119,121
1697892519.257:,-250,119,121
1697892519.257:,-251,119,121
1697892519.257:,-247,119,121
1697892519.257:,-245,119,121
1697892519.257:,-248,119,121
1697892519.257:,-250,119,121
1697892519.257:,-243,119,121
1697892519.257:,-229,119,121
1697892519.257:,-213,119,121
1697892519.257:,-201,119,121
1697892519.257:,-188,119,121
1697892519.282:,-168,119,121
1697892519.282:,-141,119,121
1697892519.282:,-120,119,121
1697892519.282:,-113,119,121
1697892519.282:,-117,119,121
1697892519.282:,-122,119,121
1697892519.282:,-120,119,121
1697892519.282:,-115,119,121
1697892519.282:,-112,119,121
1697892519.282:,-111,119,121
1697892519.282:,-108,119,121
1697892519.282:,-100,119,121
1697892519.282:,-93,119,121
1697892519.303:,-92,119,121
1697892519.303:,-95,119,121
1697892519.303:,-96,119,121
1697892519.303:,-88,119,121
1697892519.303:,-72,119,121
1697892519.303:,-58,119,121
1697892519.303:,-50,119,121
1697892519.303:,-47,119,121
1697892519.303:,-42,119,121
1697892519.303:,-29,119,121
1697892519.303:,-15,119,121
1697892519.303:,-9,119,121
1697892519.326:,-7,119,121
1697892519.326:,10,119,121
1697892519.326:,63,119,121
1697892519.326:,150,119,121
1697892519.326:,254,119,121
1697892519.326:,351,119,121
1697892519.326:,440,119,121
1697892519.326:,540,119,121
1697892519.326:,671,119,121
1697892519.326:,834,119,121
1697892519.326:,1012,119,121
1697892519.326:,1192,119,121
1697892519.326:,1373,119,121
1697892519.353:,1548,119,121
1697892519.353:,1675,119,121
1697892519.353:,1672,119,121
1697892519.353:,1460,119,121
1697892519.353:,1019,119,121
1697892519.353:,411,119,121
1697892519.353:,-268,119,121
1697892519.353:,-944,119,121
1697892519.353:,-1588,119,121
1697892519.353:,-2187,119,121
1697892519.353:,-2694,119,121
1697892519.353:,-3038,119,121
1697892519.400:,-3156,120,120
1697892519.400:,-3041,120,120
1697892519.400:,-2745,120,120
1697892519.400:,-2352,120,120
1697892519.400:,-1947,120,120
1697892519.400:,-1609,120,120
1697892519.400:,-1392,120,120
1697892519.400:,-1314,120,120
1697892519.400:,-1347,120,120
1697892519.400:,-1437,120,120
1697892519.400:,-1534,120,120
1697892519.400:,-1614,120,120
1697892519.400:,-1668,120,120
1697892519.421:,-1679,120,120
1697892519.421:,-1598,120,120
1697892519.421:,-1379,120,120
1697892519.421:,-1016,120,120
1697892519.421:,-564,120,120
1697892519.421:,-118,120,120
1697892519.421:,243,120,120
1697892519.421:,498,120,120
1697892519.421:,669,120,120
1697892519.421:,792,120,120
1697892519.421:,882,120,120
1697892519.421:,940,120,120
1697892519.442:,967,120,120
1697892519.442:,972,120,120
1697892519.442:,964,120,120
1697892519.442:,944,120,120
1697892519.442:,911,120,120
1697892519.442:,873,120,120
1697892519.442:,851,120,120
1697892519.442:,860,120,120
1697892519.442:,892,120,120
1697892519.442:,924,120,120
1697892519.442:,934,120,120
1697892519.442:,919,120,120
1697892519.442:,894,120,120
1697892519.463:,872,120,120
1697892519.463:,858,120,120
1697892519.463:,847,120,120
1697892519.463:,836,120,120
1697892519.463:,825,120,120
1697892519.463:,820,120,120
1697892519.463:,823,120,120
1697892519.463:,829,120,120
1697892519.463:,831,120,120
1697892519.463:,825,120,120
1697892519.463:,815,120,120
1697892519.463:,809,120,120
1697892519.484:,807,120,120
1697892519.484:,806,120,120
1697892519.484:,802,120,120
1697892519.484:,800,120,120
1697892519.484:,806,120,120
1697892519.484:,816,120,120
1697892519.484:,825,120,120
1697892519.484:,827,120,120
1697892519.484:,826,120,120
1697892519.484:,830,120,120
1697892519.484:,841,120,120
1697892519.484:,855,120,120
1697892519.484:,869,120,120
1697892519.506:,887,120,120
1697892519.506:,912,120,120
1697892519.506:,941,120,120
1697892519.506:,968,120,120
1697892519.506:,989,120,120
1697892519.506:,1010,120,120
1697892519.506:,1037,120,120
1697892519.506:,1065,120,120
1697892519.506:,1088,120,120
1697892519.506:,1100,120,120
1697892519.506:,1104,120,120
1697892519.506:,1109,120,120
1697892519.530:,1116,120,120
1697892519.530:,1124,120,120
1697892519.530:,1128,120,120
1697892519.530:,1130,120,120
1697892519.530:,1131,120,120
1697892519.530:,1133,120,120
1697892519.530:,1132,120,120
1697892519.530:,1124,120,120
1697892519.530:,1107,120,120
1697892519.530:,1086,120,120
1697892519.530:,1063,120,120
1697892519.530:,1037,120,120
1697892519.530:,1004,120,120
1697892519.551:,962,120,120
1697892519.551:,917,120,120
1697892519.551:,875,120,120
1697892519.551:,835,120,120
1697892519.551:,795,120,120
1697892519.551:,750,120,120
1697892519.551:,703,120,120
1697892519.551:,658,120,120
1697892519.551:,614,120,120
1697892519.551:,574,120,120
1697892519.551:,536,120,120
1697892519.551:,499,120,120
1697892519.572:,462,120,120
1697892519.572:,424,120,120
1697892519.572:,389,120,120
1697892519.572:,361,120,120
1697892519.572:,335,120,120
1697892519.572:,308,120,120
1697892519.572:,276,120,120
1697892519.572:,242,120,120
1697892519.572:,208,120,120
1697892519.572:,176,120,120
1697892519.572:,143,120,120
1697892519.572:,110,120,120
1697892519.572:,78,120,120
1697892519.597:,51,120,120
1697892519.597:,28,120,120
1697892519.597:,9,120,120
1697892519.597:,-5,120,120
1697892519.597:,-14,120,120
1697892519.597:,-21,120,120
1697892519.597:,-33,120,120
1697892519.597:,-49,120,120
1697892519.597:,-64,120,120
1697892519.597:,-72,120,120
1697892519.597:,-74,120,120
1697892519.597:,-79,120,120
1697892519.622:,-88,120,120
1697892519.622:,-99,120,120
1697892519.622:,-105,120,120
1697892519.622:,-104,120,120
1697892519.622:,-101,120,120
1697892519.622:,-102,120,120
1697892519.622:,-106,120,120
1697892519.622:,-106,120,120
1697892519.622:,-99,120,120
1697892519.622:,-92,120,120
1697892519.622:,-93,120,120
1697892519.622:,-100,120,120
1697892519.622:,-104,120,120
1697892519.643:,-97,120,120
1697892519.643:,-83,120,120
1697892519.643:,-71,120,120
1697892519.643:,-66,120,120
1697892519.643:,-65,120,120
1697892519.643:,-64,120,120
1697892519.643:,-61,120,120
1697892519.643:,-56,120,120
1697892519.643:,-50,120,120
1697892519.643:,-40,120,120
1697892519.643:,-34,120,120
1697892519.643:,-36,120,120
1697892519.672:,-45,120,120
1697892519.672:,-53,120,120
1697892519.672:,-49,120,120
1697892519.672:,-37,120,120
1697892519.672:,-29,120,120
1697892519.672:,-35,120,120
1697892519.672:,-50,120,120
1697892519.672:,-61,120,120
1697892519.672:,-56,120,120
1697892519.672:,-37,120,120
1697892519.672:,-17,120,120
1697892519.672:,-5,120,120
1697892519.672:,-1,120,120
1697892519.697:,4,120,120
1697892519.697:,18,120,120
1697892519.697:,38,120,120
1697892519.697:,56,120,120
1697892519.697:,65,120,120
1697892519.697:,65,120,120
1697892519.697:,62,120,120
1697892519.697:,59,120,120
1697892519.697:,56,120,120
1697892519.697:,49,120,120
1697892519.697:,37,120,120
1697892519.697:,27,120,120
1697892519.722:,23,120,120
1697892519.722:,23,120,120
1697892519.722:,22,120,120
1697892519.722:,12,120,120
1697892519.722:,-5,120,120
1697892519.722:,-24,120,120
1697892519.722:,-37,120,120
1697892519.722:,-42,120,120
1697892519.722:,-44,120,120
1697892519.722:,-56,120,120
1697892519.722:,-81,120,120
1697892519.722:,-111,120,120
1697892519.722:,-127,120,120
1697892519.750:,-121,120,120
1697892519.750:,-102,120,120
1697892519.750:,-92,120,120
1697892519.750:,-103,120,120
1697892519.750:,-121,120,120
1697892519.750:,-122,120,120
1697892519.750:,-99,120,120
1697892519.750:,-76,120,120
1697892519.750:,-79,120,120
1697892519.750:,-103,120,120
1697892519.750:,-120,120,120
1697892519.750:,-109,120,120
1697892519.796:,-81,120,120
1697892519.796:,-64,120,120
1697892519.796:,-67,120,120
1697892519.796:,-72,120,120
1697892519.796:,-56,120,120
1697892519.796:,-22,120,120
1697892519.796:,9,120,120
1697892519.796:,24,120,120
1697892519.796:,29,120,120
1697892519.796:,35,120,120
1697892519.796:,42,120,120
1697892519.796:,46,120,120
1697892519.796:,45,120,120
1697892519.817:,47,120,120
1697892519.817:,53,120,120
1697892519.817:,55,120,120
1697892519.817:,52,120,120
1697892519.817:,49,120,120
1697892519.817:,58,120,120
1697892519.817:,80,120,120
1697892519.817:,102,120,120
1697892519.817:,111,120,120
1697892519.817:,111,120,120
1697892519.817:,112,120,120
1697892519.817:,124,120,120
1697892519.838:,145,120,120
1697892519.838:,160,120,120
1697892519.838:,158,120,120
1697892519.838:,142,120,120
1697892519.838:,136,120,120
1697892519.838:,168,120,120
1697892519.838:,246,120,120
1697892519.838:,349,120,120
1697892519.838:,451,120,120
1697892519.838:,542,120,120
1697892519.838:,644,120,120
1697892519.838:,783,120,120
1697892519.838:,967,120,120
1697892519.859:,1181,120,120
1697892519.859:,1418,120,120
1697892519.859:,1675,120,120
1697892519.859:,1924,120,120
1697892519.859:,2085,120,120
1697892519.859:,2054,120,120
1697892519.859:,1764,120,120
1697892519.859:,1231,120,120
1697892519.859:,529,120,120
1697892519.859:,-277,120,120
1697892519.859:,-1151,120,120
1697892519.859:,-2052,120,120
1697892519.881:,-2894,120,120
1697892519.881:,-3545,120,120
1697892519.881:,-3907,120,120
1697892519.881:,-3967,120,120
1697892519.881:,-3792,120,120
1697892519.881:,-3461,120,120
1697892519.881:,-3031,120,120
1697892519.881:,-2553,120,120
1697892519.881:,-2104,120,120
1697892519.881:,-1786,120,120
1697892519.881:,-1661,120,120
1697892519.881:,-1709,120,120
1697892519.881:,-1842,120,120
1697892519.902:,-1966,122,120
1697892519.902:,-2029,122,120
1697892519.902:,-2011,122,120
1697892519.902:,-1901,122,120
1697892519.902:,-1670,122,120
1697892519.902:,-1300,122,120
1697892519.902:,-810,122,120
1697892519.902:,-260,122,120
1697892519.902:,271,122,120
1697892519.902:,709,122,120
1697892519.902:,1011,122,120
1697892519.902:,1170,122,120
1697892519.923:,1221,122,120
1697892519.923:,1214,122,120
1697892519.923:,1190,122,120
1697892519.923:,1170,122,120
1697892519.923:,1154,122,120
1697892519.923:,1137,122,120
1697892519.923:,1119,122,120
1697892519.923:,1100,122,120
1697892519.923:,1084,122,120
1697892519.923:,1078,122,120
1697892519.923:,1089,122,120
1697892519.923:,1113,122,120
1697892519.923:,1139,122,120
1697892519.944:,1154,122,120
1697892519.944:,1152,122,120
1697892519.944:,1137,122,120
1697892519.944:,1117,122,120
1697892519.944:,1098,122,120
1697892519.944:,1083,122,120
1697892519.944:,1071,122,120
1697892519.944:,1059,122,120
1697892519.944:,1047,122,120
1697892519.944:,1032,122,120
1697892519.970:,1021,122,120
1697892519.970:,1014,122,120
1697892519.970:,1012,122,120
1697892519.970:,1012,122,120
1697892519.970:,1009,122,120
1697892519.970:,1007,122,120
1697892519.970:,1005,122,120
1697892519.970:,1006,122,120
1697892519.970:,1010,122,120
1697892519.970:,1020,122,120
1697892519.970:,1034,122,120
1697892519.970:,1047,122,120
1697892519.995:,1054,122,120
1697892519.995:,1058,122,120
1697892519.995:,1071,122,120
1697892519.995:,1102,122,120
1697892519.995:,1147,122,120
1697892519.995:,1191,122,120
1697892519.995:,1221,122,120
1697892519.995:,1239,122,120
1697892519.995:,1261,122,120
1697892519.995:,1296,122,120
1697892519.995:,1339,122,120
1697892519.995:,1375,122,120
1697892519.995:,1393,122,120
1697892520.016:,1403,122,120
1697892520.016:,1423,122,120
1697892520.016:,1458,122,120
1697892520.016:,1491,122,120
1697892520.016:,1501,122,120
1697892520.016:,1490,122,120
1697892520.016:,1477,122,120
1697892520.016:,1480,122,120
1697892520.016:,1490,122,120
1697892520.016:,1483,122,120
1697892520.016:,1448,122,120
1697892520.016:,1400,122,120
1697892520.042:,1363,122,120
1697892520.042:,1340,122,120
1697892520.042:,1314,122,120
1697892520.042:,1270,122,120
1697892520.042:,1211,122,120
1697892520.042:,1152,122,120
1697892520.042:,1102,122,120
1697892520.042:,1055,122,120
1697892520.042:,1001,122,120
1697892520.042:,940,122,120
1697892520.042:,877,122,120
1697892520.042:,814,122,120
1697892520.042:,749,122,120
1697892520.070:,678,122,120
1697892520.070:,603,122,120
1697892520.070:,530,122,120
1697892520.070:,460,122,120
1697892520.070:,392,122,120
1697892520.070:,324,122,120
1697892520.070:,252,122,120
1697892520.070:,176,122,120
1697892520.070:,96,122,120
1697892520.070:,19,122,120
1697892520.070:,-49,122,120
1697892520.070:,-104,122,120
1697892520.091:,-150,122,120
1697892520.091:,-198,122,120
1697892520.091:,-254,122,120
1697892520.091:,-316,122,120
1697892520.091:,-371,122,120
1697892520.091:,-411,122,120
1697892520.091:,-432,122,120
1697892520.091:,-448,122,120
1697892520.091:,-472,122,120
1697892520.091:,-509,122,120
1697892520.091:,-550,122,120
1697892520.091:,-575,122,120
1697892520.091:,-574,122,120
1697892520.111:,-556,122,120
1697892520.111:,-543,122,120
1697892520.111:,-549,122,120
1697892520.111:,-567,122,120
1697892520.111:,-575,122,120
1697892520.111:,-559,122,120
1697892520.111:,-526,122,120
1697892520.111:,-495,122,120
1697892520.111:,-483,122,120
1697892520.111:,-487,122,120
1697892520.111:,-488,122,120
1697892520.111:,-476,122,120
1697892520.142:,-457,122,120
1697892520.142:,-444,122,120
1697892520.142:,-444,122,120
1697892520.142:,-448,122,120
1697892520.142:,-441,122,120
1697892520.142:,-424,122,120
1697892520.142:,-410,122,120
1697892520.142:,-408,122,120
1697892520.142:,-412,122,120
1697892520.142:,-410,122,120
1697892520.142:,-397,122,120
1697892520.142:,-383,122,120
1697892520.142:,-377,122,120
1697892520.178:,-374,122,120
1697892520.178:,-368,122,120
1697892520.178:,-356,122,120
1697892520.178:,-346,122,120
1697892520.178:,-345,122,120
1697892520.178:,-345,122,120
1697892520.178:,-337,122,120
1697892520.178:,-323,122,120
1697892520.178:,-315,122,120
1697892520.178:,-319,122,120
1697892520.178:,-328,122,120
1697892520.178:,-326,122,120
1697892520.199:,-309,122,120
1697892520.199:,-292,122,120
1697892520.199:,-292,122,120
1697892520.199:,-308,122,120
1697892520.199:,-318,122,120
1697892520.199:,-303,122,120
1697892520.199:,-269,122,120
1697892520.199:,-239,122,120
1697892520.199:,-228,122,120
1697892520.199:,-223,122,120
1697892520.199:,-202,122,120
1697892520.199:,-161,122,120
1697892520.199:,-122,122,120
1697892520.220:,-106,122,120
1697892520.220:,-108,122,120
1697892520.220:,-107,122,120
1697892520.220:,-93,122,120
1697892520.220:,-81,122,120
1697892520.220:,-88,122,120
1697892520.220:,-112,122,120
1697892520.220:,-133,122,120
1697892520.220:,-135,122,120
1697892520.220:,-125,122,120
1697892520.220:,-120,122,120
1697892520.220:,-124,122,120
1697892520.241:,-129,122,120
1697892520.241:,-127,122,120
1697892520.241:,-125,122,120
1697892520.241:,-130,122,120
1697892520.241:,-140,122,120
1697892520.241:,-146,122,120
1697892520.241:,-146,122,120
1697892520.241:,-154,122,120
1697892520.241:,-186,122,120
1697892520.241:,-229,122,120
1697892520.241:,-249,122,120
1697892520.241:,-230,122,120
1697892520.241:,-197,122,120
1697892520.264:,-194,122,120
1697892520.264:,-228,122,120
1697892520.264:,-260,122,120
1697892520.264:,-247,122,120
1697892520.264:,-201,122,120
1697892520.264:,-175,122,120
1697892520.264:,-198,122,120
1697892520.264:,-238,122,120
1697892520.264:,-238,122,120
1697892520.264:,-197,122,120
1697892520.264:,-159,122,120
1697892520.264:,-158,122,120
1697892520.286:,-171,122,120
1697892520.286:,-155,122,120
1697892520.286:,-109,122,120
1697892520.286:,-73,122,120
1697892520.286:,-75,122,120
1697892520.286:,-96,122,120
1697892520.286:,-98,122,120
1697892520.286:,-76,122,120
1697892520.286:,-61,122,120
1697892520.286:,-74,122,120
1697892520.286:,-100,122,120
1697892520.286:,-104,122,120
1697892520.286:,-77,122,120
1697892520.307:,-39,122,120
1697892520.307:,-21,122,120
1697892520.307:,-27,122,120
1697892520.307:,-33,122,120
1697892520.307:,-21,122,120
1697892520.307:,7,122,120
1697892520.307:,29,122,120
1697892520.307:,32,122,120
1697892520.307:,21,122,120
1697892520.307:,16,122,120
1697892520.307:,26,122,120
1697892520.307:,33,122,120
1697892520.341:,22,122,120
1697892520.341:,16,122,120
1697892520.341:,58,122,120
1697892520.341:,164,122,120
1697892520.341:,301,122,120
1697892520.341:,422,122,120
1697892520.341:,516,122,120
1697892520.341:,624,122,120
1697892520.341:,781,122,120
1697892520.341:,987,122,120
1697892520.341:,1209,122,120
1697892520.341:,1430,122,120
1697892520.341:,1655,122,120
1697892520.366:,1862,122,120
1697892520.366:,1966,122,120
1697892520.366:,1844,122,120
1697892520.366:,1422,122,120
1697892520.366:,738,122,120
1697892520.366:,-89,122,120
1697892520.366:,-939,122,120
1697892520.366:,-1757,122,120
1697892520.366:,-2532,122,120
1697892520.366:,-3227,122,120
1697892520.366:,-3743,122,120
1697892520.366:,-3965,122,120
1697892520.387:,-3856,120,120
1697892520.387:,-3488,120,120
1697892520.387:,-2995,120,120
1697892520.387:,-2496,120,120
1697892520.387:,-2058,120,120
1697892520.387:,-1722,120,120
1697892520.387:,-1537,120,120
1697892520.387:,-1542,120,120
1697892520.387:,-1719,120,120
1697892520.387:,-1983,120,120
1697892520.387:,-2222,120,120
1697892520.387:,-2355,120,120
1697892520.387:,-2360,120,120
1697892520.408:,-2243,120,120
1697892520.408:,-2000,120,120
1697892520.408:,-1607,120,120
1697892520.408:,-1063,120,120
1697892520.408:,-431,120,120
1697892520.408:,172,120,120
1697892520.408:,634,120,120
1697892520.408:,911,120,120
1697892520.408:,1043,120,120
1697892520.408:,1105,120,120
1697892520.408:,1147,120,120
1697892520.408:,1174,120,120
1697892520.433:,1180,120,120
1697892520.433:,1168,120,120
1697892520.433:,1149,120,120
1697892520.433:,1128,120,120
1697892520.433:,1104,120,120
1697892520.433:,1082,120,120
1697892520.433:,1074,120,120
1697892520.433:,1089,120,120
1697892520.433:,1117,120,120
1697892520.433:,1141,120,120
1697892520.433:,1147,120,120
1697892520.433:,1136,120,120
1697892520.433:,1116,120,120
1697892520.458:,1088,120,120
1697892520.458:,1054,120,120
1697892520.458:,1021,120,120
1697892520.458:,996,120,120
1697892520.458:,985,120,120
1697892520.458:,983,120,120
1697892520.458:,982,120,120
1697892520.458:,976,120,120
1697892520.458:,965,120,120
1697892520.458:,951,120,120
1697892520.458:,937,120,120
1697892520.458:,925,120,120
1697892520.483:,918,120,120
1697892520.483:,918,120,120
1697892520.483:,924,120,120
1697892520.483:,934,120,120
1697892520.483:,946,120,120
1697892520.483:,957,120,120
1697892520.483:,968,120,120
1697892520.483:,980,120,120
1697892520.483:,996,120,120
1697892520.483:,1016,120,120
1697892520.483:,1037,120,120
1697892520.483:,1060,120,120
1697892520.483:,1084,120,120
1697892520.508:,1111,120,120
1697892520.508:,1139,120,120
1697892520.508:,1166,120,120
1697892520.508:,1193,120,120
1697892520.508:,1217,120,120
1697892520.508:,1239,120,120
1697892520.508:,1254,120,120
1697892520.508:,1264,120,120
1697892520.508:,1274,120,120
1697892520.508:,1285,120,120
1697892520.508:,1290,120,120
1697892520.508:,1284,120,120
1697892520.530:,1265,120,120
1697892520.530:,1243,120,120
1697892520.530:,1229,120,120
1697892520.530:,1219,120,120
1697892520.530:,1204,120,120
1697892520.530:,1174,120,120
1697892520.530:,1136,120,120
1697892520.530:,1100,120,120
1697892520.530:,1070,120,120
1697892520.530:,1040,120,120
1697892520.530:,999,120,120
1697892520.530:,946,120,120
1697892520.530:,888,120,120
1697892520.585:,830,120,120
1697892520.585:,773,120,120
1697892520.585:,715,120,120
1697892520.585:,657,120,120
1697892520.585:,598,120,120
1697892520.585:,539,120,120
1697892520.585:,478,120,120
1697892520.585:,416,120,120
1697892520.585:,358,120,120
1697892520.585:,304,120,120
1697892520.585:,252,120,120
1697892520.585:,199,120,120
1697892520.606:,142,120,120
1697892520.606:,85,120,120
1697892520.606:,30,120,120
1697892520.606:,-24,120,120
1697892520.606:,-80,120,120
1697892520.606:,-138,120,120
1697892520.606:,-196,120,120
1697892520.606:,-250,120,120
1697892520.606:,-302,120,120
1697892520.606:,-353,120,120
1697892520.606:,-403,120,120
1697892520.606:,-451,120,120
1697892520.606:,-494,120,120
1697892520.606:,-532,120,120
1697892520.606:,-567,120,120
1697892520.606:,-601,120,120
1697892520.606:,-633,120,120
1697892520.606:,-660,120,120
1697892520.606:,-682,120,120
1697892520.606:,-700,120,120
1697892520.606:,-716,120,120
1697892520.606:,-729,120,120
1697892520.606:,-737,120,120
1697892520.606:,-738,120,120
1697892520.606:,-736,120,120
1697892520.630:,-736,120,120
1697892520.630:,-738,120,120
1697892520.630:,-737,120,120
1697892520.630:,-729,120,120
1697892520.630:,-717,120,120
1697892520.630:,-712,120,120
1697892520.630:,-716,120,120
1697892520.630:,-722,120,120
1697892520.630:,-717,120,120
1697892520.630:,-701,120,120
1697892520.630:,-683,120,120
1697892520.630:,-673,120,120
1697892520.630:,-670,120,120
1697892520.655:,-667,120,120
1697892520.655:,-658,120,120
1697892520.655:,-644,120,120
1697892520.655:,-635,120,120
1697892520.655:,-635,120,120
1697892520.655:,-642,120,120
1697892520.655:,-649,120,120
1697892520.655:,-650,120,120
1697892520.655:,-648,120,120
1697892520.655:,-646,120,120
1697892520.655:,-646,120,120
1697892520.655:,-643,120,120
1697892520.680:,-634,120,120
1697892520.680:,-622,120,120
1697892520.680:,-614,120,120
1697892520.680:,-610,120,120
1697892520.680:,-607,120,120
1697892520.680:,-601,120,120
1697892520.680:,-594,120,120
1697892520.680:,-590,120,120
1697892520.680:,-590,120,120
1697892520.680:,-591,120,120
1697892520.680:,-586,120,120
1697892520.680:,-576,120,120
1697892520.680:,-563,120,120
1697892520.706:,-549,120,120
1697892520.706:,-532,120,120
1697892520.706:,-513,120,120
1697892520.706:,-498,120,120
1697892520.706:,-486,120,120
1697892520.706:,-472,120,120
1697892520.706:,-450,120,120
1697892520.706:,-424,120,120
1697892520.706:,-403,120,120
1697892520.706:,-392,120,120
1697892520.706:,-384,120,120
1697892520.706:,-372,120,120
1697892520.731:,-361,120,120
1697892520.731:,-360,120,120
1697892520.731:,-371,120,120
1697892520.731:,-383,120,120
1697892520.731:,-384,120,120
1697892520.731:,-377,120,120
1697892520.731:,-373,120,120
1697892520.731:,-373,120,120
1697892520.731:,-368,120,120
1697892520.731:,-353,120,120
1697892520.731:,-336,120,120
1697892520.731:,-332,120,120
1697892520.731:,-342,120,120
1697892520.752:,-351,120,120
1697892520.752:,-352,120,120
1697892520.752:,-354,120,120
1697892520.752:,-373,120,120
1697892520.752:,-406,120,120
1697892520.752:,-433,120,120
1697892520.752:,-438,120,120
1697892520.752:,-431,120,120
1697892520.752:,-431,120,120
1697892520.752:,-442,120,120
1697892520.752:,-451,120,120
1697892520.752:,-448,120,120
1697892520.775:,-437,120,120
1697892520.775:,-436,120,120
1697892520.775:,-447,120,120
1697892520.775:,-456,120,120
1697892520.775:,-449,120,120
1697892520.775:,-432,120,120
1697892520.775:,-418,120,120
1697892520.775:,-411,120,120
1697892520.775:,-400,120,120
1697892520.775:,-376,120,120
1697892520.775:,-343,120,120
1697892520.775:,-320,120,120
1697892520.775:,-313,120,120
1697892520.799:,-316,120,120
1697892520.799:,-314,120,120
1697892520.799:,-302,120,120
1697892520.799:,-292,120,120
1697892520.799:,-292,120,120
1697892520.799:,-297,120,120
1697892520.799:,-293,120,120
1697892520.799:,-276,120,120
1697892520.799:,-257,120,120
1697892520.799:,-247,120,120
1697892520.799:,-247,120,120
1697892520.799:,-245,120,120
1697892520.827:,-234,120,120
1697892520.827:,-219,120,120
1697892520.827:,-212,120,120
1697892520.827:,-212,120,120
1697892520.827:,-210,120,120
1697892520.827:,-196,120,120
1697892520.827:,-175,120,120
1697892520.827:,-158,120,120
1697892520.827:,-150,120,120
1697892520.827:,-144,120,120
1697892520.827:,-119,120,120
1697892520.827:,-59,120,120
1697892520.827:,35,120,120
1697892520.852:,145,120,120
1697892520.852:,247,120,120
1697892520.852:,332,120,120
1697892520.852:,417,120,120
1697892520.852:,530,120,120
1697892520.852:,682,120,120
1697892520.852:,854,120,120
1697892520.852:,1021,120,120
1697892520.852:,1181,120,120
1697892520.852:,1346,120,120
1697892520.852:,1483,120,120
1697892520.852:,1488,120,120
1697892520.877:,1249,120,120
1697892520.877:,752,120,120
1697892520.877:,119,120,120
1697892520.877:,-487,120,120
1697892520.877:,-987,120,120
1697892520.877:,-1420,120,120
1697892520.877:,-1849,120,120
1697892520.877:,-2247,120,120
1697892520.877:,-2498,120,120
1697892520.877:,-2503,120,120
1697892520.877:,-2265,120,120
1697892520.877:,-1889,120,120
1697892520.877:,-1508,120,120
1697892520.902:,-1221,117,120
1697892520.902:,-1075,117,120
1697892520.902:,-1075,117,120
1697892520.902:,-1193,117,120
1697892520.902:,-1380,117,120
1697892520.902:,-1593,117,120
1697892520.902:,-1808,117,120
1697892520.902:,-2008,117,120
1697892520.902:,-2164,117,120
1697892520.902:,-2228,117,120
1697892520.902:,-2144,117,120
1697892520.902:,-1888,117,120
1697892520.929:,-1483,117,120
1697892520.929:,-998,117,120
1697892520.929:,-526,117,120
1697892520.929:,-135,117,120
1697892520.929:,147,117,120
1697892520.929:,341,117,120
1697892520.929:,487,117,120
1697892520.929:,606,117,120
1697892520.929:,697,117,120
1697892520.929:,748,117,120
1697892520.929:,756,117,120
1697892520.929:,730,117,120
1697892520.929:,685,117,120
1697892520.950:,635,117,120
1697892520.950:,595,117,120
1697892520.950:,577,117,120
1697892520.950:,588,117,120
1697892520.950:,624,117,120
1697892520.950:,671,117,120
1697892520.950:,710,117,120
1697892520.950:,726,117,120
1697892520.950:,715,117,120
1697892520.950:,685,117,120
1697892520.950:,653,117,120
1697892520.971:,630,117,120
1697892520.971:,619,117,120
1697892520.971:,613,117,120
1697892520.971:,607,117,120
1697892520.971:,601,117,120
1697892520.971:,596,117,120
1697892520.971:,590,117,120
1697892520.971:,580,117,120
1697892520.971:,564,117,120
1697892520.971:,549,117,120
1697892520.971:,540,117,120
1697892520.994:,539,117,120
1697892520.994:,541,117,120
1697892520.994:,545,117,120
1697892520.994:,551,117,120
1697892520.994:,561,117,120
1697892520.994:,574,117,120
1697892520.994:,585,117,120
1697892520.994:,587,117,120
1697892520.994:,586,117,120
1697892520.994:,590,117,120
1697892520.994:,606,117,120
1697892520.994:,629,117,120
1697892521.022:,649,117,120
1697892521.022:,663,117,120
1697892521.022:,676,117,120
1697892521.022:,698,117,120
1697892521.022:,728,117,120
1697892521.022:,756,117,120
1697892521.022:,772,117,120
1697892521.022:,779,117,120
1697892521.022:,789,117,120
1697892521.022:,804,117,120
1697892521.022:,816,117,120
1697892521.022:,818,117,120
1697892521.022:,813,117,120
1697892521.047:,814,117,120
1697892521.047:,823,117,120
1697892521.047:,828,117,120
1697892521.047:,821,117,120
1697892521.047:,808,117,120
1697892521.047:,801,117,120
1697892521.047:,802,117,120
1697892521.047:,802,117,120
1697892521.047:,789,117,120
1697892521.047:,765,117,120
1697892521.047:,744,117,120
1697892521.047:,730,117,120
1697892521.073:,719,117,120
1697892521.073:,700,117,120
1697892521.073:,673,117,120
1697892521.073:,644,117,120
1697892521.073:,617,117,120
1697892521.073:,593,117,120
1697892521.073:,569,117,120
1697892521.073:,546,117,120
1697892521.073:,523,117,120
1697892521.073:,496,117,120
1697892521.073:,465,117,120
1697892521.073:,434,117,120
1697892521.073:,408,117,120
1697892521.108:,387,117,120
1697892521.108:,364,117,120
1697892521.108:,333,117,120
1697892521.108:,299,117,120
1697892521.108:,266,117,120
1697892521.108:,238,117,120
1697892521.108:,212,117,120
1697892521.108:,183,117,120
1697892521.108:,151,117,120
1697892521.108:,121,117,120
1697892521.108:,96,117,120
1697892521.108:,78,117,120
1697892521.130:,63,117,120
1697892521.130:,46,117,120
1697892521.130:,26,117,120
1697892521.130:,2,117,120
1697892521.130:,-23,117,120
1697892521.130:,-45,117,120
1697892521.130:,-67,117,120
1697892521.130:,-88,117,120
1697892521.130:,-110,117,120
1697892521.130:,-133,117,120
1697892521.130:,-155,117,120
1697892521.130:,-176,117,120
1697892521.130:,-195,117,120
1697892521.151:,-210,117,120
1697892521.151:,-219,117,120
1697892521.151:,-226,117,120
1697892521.151:,-238,117,120
1697892521.151:,-253,117,120
1697892521.151:,-265,117,120
1697892521.151:,-266,117,120
1697892521.151:,-260,117,120
1697892521.151:,-258,117,120
1697892521.151:,-267,117,120
1697892521.151:,-281,117,120
1697892521.151:,-290,117,120
1697892521.173:,-287,117,120
1697892521.173:,-279,117,120
1697892521.173:,-275,117,120
1697892521.173:,-281,117,120
1697892521.173:,-292,117,120
1697892521.173:,-301,117,120
1697892521.173:,-304,117,120
1697892521.173:,-302,117,120
1697892521.173:,-299,117,120
1697892521.173:,-301,117,120
1697892521.173:,-307,117,120
1697892521.173:,-313,117,120
1697892521.173:,-311,117,120
1697892521.194:,-303,117,120
1697892521.194:,-294,117,120
1697892521.194:,-290,117,120
1697892521.194:,-290,117,120
1697892521.194:,-291,117,120
1697892521.194:,-288,117,120
1697892521.194:,-287,117,120
1697892521.194:,-290,117,120
1697892521.194:,-299,117,120
1697892521.194:,-310,117,120
1697892521.194:,-317,117,120
1697892521.194:,-315,117,120
1697892521.218:,-309,117,120
1697892521.218:,-302,117,120
1697892521.218:,-296,117,120
1697892521.218:,-288,117,120
1697892521.218:,-273,117,120
1697892521.218:,-251,117,120
1697892521.218:,-225,117,120
1697892521.218:,-203,117,120
1697892521.218:,-188,117,120
1697892521.218:,-177,117,120
1697892521.218:,-167,117,120
1697892521.218:,-158,117,120
1697892521.218:,-153,117,120
1697892521.240:,-154,117,120
1697892521.240:,-161,117,120
1697892521.240:,-172,117,120
1697892521.240:,-183,117,120
1697892521.240:,-192,117,120
1697892521.240:,-198,117,120
1697892521.240:,-199,117,120
1697892521.240:,-194,117,120
1697892521.240:,-186,117,120
1697892521.240:,-186,117,120
1697892521.240:,-199,117,120
1697892521.240:,-222,117,120
1697892521.265:,-239,117,120
1697892521.265:,-242,117,120
1697892521.265:,-238,117,120
1697892521.265:,-246,117,120
1697892521.265:,-274,117,120
1697892521.265:,-305,117,120
1697892521.265:,-318,117,120
1697892521.265:,-307,117,120
1697892521.265:,-290,117,120
1697892521.265:,-286,117,120
1697892521.265:,-299,117,120
1697892521.265:,-312,117,120
1697892521.265:,-312,117,120
1697892521.290:,-303,117,120
1697892521.290:,-301,117,120
1697892521.290:,-312,117,120
1697892521.290:,-325,117,120
1697892521.290:,-326,117,120
1697892521.290:,-310,117,120
1697892521.290:,-288,117,120
1697892521.290:,-272,117,120
1697892521.290:,-263,117,120
1697892521.290:,-253,117,120
1697892521.290:,-231,117,120
1697892521.290:,-201,117,120
1697892521.312:,-176,117,120
1697892521.312:,-165,117,120
1697892521.312:,-168,117,120
1697892521.312:,-172,117,120
1697892521.312:,-168,117,120
1697892521.312:,-155,117,120
1697892521.312:,-143,117,120
1697892521.312:,-136,117,120
1697892521.312:,-133,117,120
1697892521.312:,-127,117,120
1697892521.312:,-116,117,120
1697892521.312:,-104,117,120
1697892521.312:,-96,117,120
1697892521.336:,-92,117,120
1697892521.336:,-89,117,120
1697892521.336:,-81,117,120
1697892521.336:,-73,117,120
1697892521.336:,-68,117,120
1697892521.336:,-65,117,120
1697892521.337:,-61,117,120
1697892521.337:,-53,117,120
1697892521.337:,-43,117,120
1697892521.337:,-30,117,120
1697892521.337:,-3,117,120
1697892521.337:,50,117,120
1697892521.361:,133,117,120
1697892521.361:,232,117,120
1697892521.361:,325,117,120
1697892521.361:,405,117,120
1697892521.361:,491,117,120
1697892521.361:,604,117,120
1697892521.361:,751,117,120
1697892521.361:,911,117,120
1697892521.361:,1066,117,120
1697892521.361:,1219,117,120
1697892521.361:,1380,117,120
1697892521.361:,1524,117,120
1697892521.361:,1566,117,120
1697892521.387:,1405,117,120
1697892521.387:,1005,117,120
1697892521.387:,437,117,120
1697892521.387:,-175,117,120
1697892521.387:,-747,117,120
1697892521.387:,-1274,117,120
1697892521.387:,-1783,117,120
1697892521.387:,-2257,117,120
1697892521.387:,-2613,117,120
1697892521.387:,-2764,117,120
1697892521.387:,-2680,117,120
1697892521.387:,-2411,117,120
1697892521.417:,-2053,118,119
1697892521.417:,-1706,118,119
1697892521.417:,-1440,118,119
1697892521.417:,-1288,118,119
1697892521.417:,-1246,118,119
1697892521.417:,-1280,118,119
1697892521.417:,-1356,118,119
1697892521.417:,-1454,118,119
1697892521.417:,-1563,118,119
1697892521.417:,-1662,118,119
1697892521.417:,-1714,118,119
1697892521.417:,-1672,118,119
1697892521.417:,-1500,118,119
1697892521.443:,-1195,118,119
1697892521.443:,-797,118,119
1697892521.443:,-382,118,119
1697892521.443:,-27,118,119
1697892521.443:,229,118,119
1697892521.443:,399,118,119
1697892521.443:,525,118,119
1697892521.443:,635,118,119
1697892521.443:,725,118,119
1697892521.443:,777,118,119
1697892521.443:,783,118,119
1697892521.443:,757,118,119
1697892521.469:,718,118,119
1697892521.469:,684,118,119
1697892521.469:,660,118,119
1697892521.469:,648,118,119
1697892521.469:,654,118,119
1697892521.469:,677,118,119
1697892521.469:,708,118,119
1697892521.469:,735,118,119
1697892521.469:,747,118,119
1697892521.469:,741,118,119
1697892521.469:,721,118,119
1697892521.469:,697,118,119
1697892521.469:,676,118,119
1697892521.494:,662,118,119
1697892521.494:,657,118,119
1697892521.494:,660,118,119
1697892521.494:,667,118,119
1697892521.494:,673,118,119
1697892521.494:,672,118,119
1697892521.494:,658,118,119
1697892521.494:,635,118,119
1697892521.494:,612,118,119
1697892521.494:,600,118,119
1697892521.494:,598,118,119
1697892521.494:,596,118,119
1697892521.515:,586,118,119
1697892521.515:,573,118,119
1697892521.515:,567,118,119
1697892521.515:,577,118,119
1697892521.515:,596,118,119
1697892521.515:,612,118,119
1697892521.515:,620,118,119
1697892521.515:,624,118,119
1697892521.515:,636,118,119
1697892521.515:,659,118,119
1697892521.515:,687,118,119
1697892521.515:,709,118,119
1697892521.515:,725,118,119
1697892521.539:,739,118,119
1697892521.539:,757,118,119
1697892521.539:,777,118,119
1697892521.539:,790,118,119
1697892521.539:,797,118,119
1697892521.539:,803,118,119
1697892521.539:,815,118,119
1697892521.539:,833,118,119
1697892521.539:,848,118,119
1697892521.539:,854,118,119
1697892521.539:,854,118,119
1697892521.539:,855,118,119
1697892521.564:,857,118,119
1697892521.564:,857,118,119
1697892521.564:,853,118,119
1697892521.564:,847,118,119
1697892521.564:,846,118,119
1697892521.564:,846,118,119
1697892521.564:,839,118,119
1697892521.564:,819,118,119
1697892521.564:,793,118,119
1697892521.564:,771,118,119
1697892521.564:,754,118,119
1697892521.564:,736,118,119
1697892521.564:,709,118,119
1697892521.589:,672,118,119
1697892521.589:,632,118,119
1697892521.589:,598,118,119
1697892521.589:,570,118,119
1697892521.589:,545,118,119
1697892521.589:,517,118,119
1697892521.589:,482,118,119
1697892521.589:,444,118,119
1697892521.589:,406,118,119
1697892521.589:,372,118,119
1697892521.589:,339,118,119
1697892521.589:,305,118,119
1697892521.610:,268,118,119
1697892521.610:,232,118,119
1697892521.610:,200,118,119
1697892521.610:,172,118,119
1697892521.610:,143,118,119
1697892521.610:,114,118,119
1697892521.610:,87,118,119
1697892521.610:,66,118,119
1697892521.610:,47,118,119
1697892521.610:,29,118,119
1697892521.610:,11,118,119
1697892521.610:,-4,118,119
1697892521.610:,-19,118,119
1697892521.635:,-34,118,119
1697892521.635:,-49,118,119
1697892521.635:,-61,118,119
1697892521.635:,-67,118,119
1697892521.635:,-71,118,119
1697892521.635:,-78,118,119
1697892521.635:,-93,118,119
1697892521.635:,-109,118,119
1697892521.635:,-122,118,119
1697892521.635:,-129,118,119
1697892521.635:,-134,118,119
1697892521.635:,-139,118,119
1697892521.661:,-143,118,119
1697892521.661:,-144,118,119
1697892521.661:,-145,118,119
1697892521.661:,-142,118,119
1697892521.661:,-134,118,119
1697892521.661:,-120,118,119
1697892521.661:,-106,118,119
1697892521.661:,-102,118,119
1697892521.661:,-109,118,119
1697892521.661:,-117,118,119
1697892521.661:,-113,118,119
1697892521.661:,-97,118,119
1697892521.661:,-81,118,119
1697892521.686:,-77,118,119
1697892521.686:,-82,118,119
1697892521.686:,-84,118,119
1697892521.686:,-72,118,119
1697892521.686:,-56,118,119
1697892521.686:,-47,118,119
1697892521.686:,-53,118,119
1697892521.686:,-62,118,119
1697892521.686:,-65,118,119
1697892521.686:,-59,118,119
1697892521.686:,-55,118,119
1697892521.686:,-56,118,119
1697892521.713:,-60,118,119
1697892521.713:,-59,118,119
1697892521.713:,-53,118,119
1697892521.713:,-47,118,119
1697892521.713:,-45,118,119
1697892521.713:,-45,118,119
1697892521.713:,-43,118,119
1697892521.713:,-39,118,119
1697892521.713:,-33,118,119
1697892521.713:,-28,118,119
1697892521.713:,-23,118,119
1697892521.713:,-19,118,119
1697892521.713:,-11,118,119
1697892521.734:,4,118,119
1697892521.734:,27,118,119
1697892521.734:,53,118,119
1697892521.734:,76,118,119
1697892521.734:,89,118,119
1697892521.734:,99,118,119
1697892521.734:,112,118,119
1697892521.734:,128,118,119
1697892521.734:,139,118,119
1697892521.734:,135,118,119
1697892521.734:,123,118,119
1697892521.734:,113,118,119
1697892521.756:,109,118,119
1697892521.756:,105,118,119
1697892521.756:,95,118,119
1697892521.756:,86,118,119
1697892521.756:,89,118,119
1697892521.756:,105,118,119
1697892521.756:,114,118,119
1697892521.756:,96,118,119
1697892521.756:,58,118,119
1697892521.756:,29,118,119
1697892521.756:,27,118,119
1697892521.756:,38,118,119
1697892521.756:,30,118,119
1697892521.781:,-11,118,119
1697892521.781:,-61,118,119
1697892521.781:,-81,118,119
1697892521.781:,-61,118,119
1697892521.781:,-30,118,119
1697892521.781:,-22,118,119
1697892521.781:,-38,118,119
1697892521.781:,-52,118,119
1697892521.781:,-42,118,119
1697892521.781:,-20,118,119
1697892521.781:,-17,118,119
1697892521.781:,-46,118,119
1697892521.812:,-84,118,119
1697892521.812:,-96,118,119
1697892521.812:,-75,118,119
1697892521.812:,-46,118,119
1697892521.812:,-32,118,119
1697892521.812:,-36,118,119
1697892521.812:,-33,118,119
1697892521.812:,-6,118,119
1697892521.812:,37,118,119
1697892521.812:,74,118,119
1697892521.812:,88,118,119
1697892521.812:,84,118,119
1697892521.812:,77,118,119
1697892521.837:,77,118,119
1697892521.837:,81,118,119
1697892521.837:,84,118,119
1697892521.837:,84,118,119
1697892521.837:,86,118,119
1697892521.837:,94,118,119
1697892521.837:,102,118,119
1697892521.837:,102,118,119
1697892521.837:,99,118,119
1697892521.837:,103,118,119
1697892521.837:,119,118,119
1697892521.837:,139,118,119
1697892521.862:,149,118,119
1697892521.862:,148,118,119
1697892521.862:,150,118,119
1697892521.862:,164,118,119
1697892521.862:,176,118,119
1697892521.862:,169,118,119
1697892521.862:,157,118,119
1697892521.862:,177,118,119
1697892521.862:,248,118,119
1697892521.862:,353,118,119
1697892521.862:,452,118,119
1697892521.862:,529,118,119
1697892521.862:,611,118,119
1697892521.883:,735,118,119
1697892521.883:,912,118,119
1697892521.883:,1126,118,119
1697892521.883:,1358,118,119
1697892521.883:,1598,118,119
1697892521.883:,1823,118,119
1697892521.883:,1980,118,119
1697892521.883:,1998,118,119
1697892521.883:,1810,118,119
1697892521.883:,1390,118,119
1697892521.883:,760,118,119
1697892521.883:,-26,118,119
1697892521.905:,-896,118,119
1697892521.905:,-1774,118,119
1697892521.905:,-2582,118,119
1697892521.905:,-3241,118,119
1697892521.905:,-3677,118,119
1697892521.905:,-3850,118,119
1697892521.905:,-3772,118,119
1697892521.905:,-3500,118,119
1697892521.905:,-3106,118,119
1697892521.905:,-2650,118,119
1697892521.905:,-2198,118,119
1697892521.905:,-1837,118,119
1697892521.905:,-1645,118,119
1697892521.930:,-1638,120,119
1697892521.930:,-1751,120,119
1697892521.930:,-1876,120,119
1697892521.931:,-1940,120,119
1697892521.931:,-1926,120,119
1697892521.931:,-1842,120,119
1697892521.931:,-1675,120,119
1697892521.931:,-1384,120,119
1697892521.931:,-957,120,119
1697892521.931:,-437,120,119
1697892521.931:,90,120,119
1697892521.931:,538,120,119
1697892521.956:,855,120,119
1697892521.956:,1038,120,119
1697892521.956:,1116,120,119
1697892521.956:,1131,120,119
1697892521.956:,1122,120,119
1697892521.956:,1108,120,119
1697892521.956:,1092,120,119
1697892521.956:,1070,120,119
1697892521.956:,1047,120,119
1697892521.956:,1032,120,119
1697892521.956:,1024,120,119
1697892521.956:,1020,120,119
1697892521.956:,1016,120,119
1697892521.977:,1022,120,119
1697892521.977:,1042,120,119
1697892521.977:,1071,120,119
1697892521.977:,1091,120,119
1697892521.977:,1088,120,119
1697892521.977:,1067,120,119
1697892521.977:,1041,120,119
1697892521.977:,1023,120,119
1697892521.977:,1015,120,119
1697892521.977:,1014,120,119
1697892521.998:,1016,120,119
1697892521.998:,1016,120,119
1697892521.998:,1014,120,119
1697892521.998:,1008,120,119
1697892521.998:,1001,120,119
1697892521.998:,993,120,119
1697892521.998:,991,120,119
1697892521.998:,996,120,119
1697892521.998:,1005,120,119
1697892521.998:,1009,120,119
1697892521.998:,1001,120,119
1697892521.998:,990,120,119
1697892522.023:,997,120,119
1697892522.023:,1027,120,119
1697892522.023:,1066,120,119
1697892522.023:,1088,120,119
1697892522.023:,1091,120,119
1697892522.023:,1099,120,119
1697892522.023:,1133,120,119
1697892522.023:,1187,120,119
1697892522.023:,1235,120,119
1697892522.023:,1262,120,119
1697892522.023:,1281,120,119
1697892522.023:,1313,120,119
1697892522.023:,1360,120,119
1697892522.048:,1408,120,119
1697892522.048:,1446,120,119
1697892522.048:,1476,120,119
1697892522.048:,1502,120,119
1697892522.048:,1529,120,119
1697892522.048:,1555,120,119
1697892522.048:,1577,120,119
1697892522.048:,1588,120,119
1697892522.048:,1583,120,119
1697892522.048:,1565,120,119
1697892522.048:,1548,120,119
1697892522.048:,1544,120,119
1697892522.073:,1546,120,119
1697892522.073:,1537,120,119
1697892522.073:,1508,120,119
1697892522.073:,1473,120,119
1697892522.073:,1446,120,119
1697892522.073:,1426,120,119
1697892522.073:,1396,120,119
1697892522.073:,1345,120,119
1697892522.073:,1281,120,119
1697892522.073:,1219,120,119
1697892522.073:,1163,120,119
1697892522.073:,1107,120,119
1697892522.073:,1046,120,119
1697892522.101:,983,120,119
1697892522.101:,918,120,119
1697892522.101:,850,120,119
1697892522.101:,781,120,119
1697892522.101:,716,120,119
1697892522.101:,657,120,119
1697892522.101:,598,120,119
1697892522.101:,528,120,119
1697892522.101:,446,120,119
1697892522.101:,363,120,119
1697892522.101:,290,120,119
1697892522.101:,225,120,119
1697892522.126:,160,120,119
1697892522.126:,91,120,119
1697892522.126:,22,120,119
1697892522.126:,-39,120,119
1697892522.126:,-93,120,119
1697892522.126:,-145,120,119
1697892522.126:,-200,120,119
1697892522.126:,-251,120,119
1697892522.126:,-289,120,119
1697892522.126:,-312,120,119
1697892522.126:,-330,120,119
1697892522.126:,-352,120,119
1697892522.126:,-380,120,119
1697892522.147:,-400,120,119
1697892522.147:,-403,120,119
1697892522.147:,-396,120,119
1697892522.147:,-394,120,119
1697892522.147:,-405,120,119
1697892522.147:,-423,120,119
1697892522.147:,-429,120,119
1697892522.147:,-420,120,119
1697892522.147:,-404,120,119
1697892522.147:,-394,120,119
1697892522.147:,-387,120,119
1697892522.147:,-376,120,119
1697892522.202:,-359,120,119
1697892522.202:,-343,120,119
1697892522.202:,-334,120,119
1697892522.202:,-330,120,119
1697892522.202:,-320,120,119
1697892522.202:,-302,120,119
1697892522.202:,-288,120,119
1697892522.202:,-289,120,119
1697892522.202:,-299,120,119
1697892522.202:,-298,120,119
1697892522.202:,-282,120,119
1697892522.202:,-259,120,119
1697892522.202:,-248,120,119
1697892522.223:,-255,120,119
1697892522.223:,-268,120,119
1697892522.223:,-269,120,119
1697892522.223:,-255,120,119
1697892522.223:,-239,120,119
1697892522.223:,-234,120,119
1697892522.223:,-246,120,119
1697892522.223:,-262,120,119
1697892522.223:,-271,120,119
1697892522.223:,-266,120,119
1697892522.223:,-256,120,119
1697892522.223:,-249,120,119
1697892522.223:,-250,120,119
1697892522.223:,-252,120,119
1697892522.223:,-249,120,119
1697892522.223:,-241,120,119
1697892522.223:,-235,120,119
1697892522.223:,-233,120,119
1697892522.223:,-236,120,119
1697892522.223:,-234,120,119
1697892522.223:,-224,120,119
1697892522.223:,-214,120,119
1697892522.223:,-211,120,119
1697892522.223:,-213,120,119
1697892522.223:,-209,120,119
1697892522.248:,-190,120,119
1697892522.248:,-161,120,119
1697892522.248:,-136,120,119
1697892522.248:,-121,120,119
1697892522.248:,-109,120,119
1697892522.248:,-92,120,119
1697892522.248:,-68,120,119
1697892522.248:,-47,120,119
1697892522.248:,-36,120,119
1697892522.248:,-38,120,119
1697892522.248:,-49,120,119
1697892522.248:,-64,120,119
1697892522.273:,-80,120,119
1697892522.273:,-90,120,119
1697892522.273:,-92,120,119
1697892522.273:,-90,120,119
1697892522.273:,-88,120,119
1697892522.273:,-85,120,119
1697892522.273:,-76,120,119
1697892522.273:,-65,120,119
1697892522.273:,-62,120,119
1697892522.273:,-68,120,119
1697892522.273:,-77,120,119
1697892522.273:,-79,120,119
1697892522.273:,-81,120,119
1697892522.301:,-99,120,119
1697892522.301:,-136,120,119
1697892522.301:,-172,120,119
1697892522.301:,-186,120,119
1697892522.301:,-182,120,119
1697892522.301:,-181,120,119
1697892522.301:,-194,120,119
1697892522.301:,-206,120,119
1697892522.301:,-196,120,119
1697892522.301:,-173,120,119
1697892522.301:,-166,120,119
1697892522.301:,-183,120,119
1697892522.326:,-204,120,119
1697892522.326:,-197,120,119
1697892522.326:,-163,120,119
1697892522.326:,-132,120,119
1697892522.326:,-127,120,119
1697892522.326:,-137,120,119
1697892522.326:,-133,120,119
1697892522.326:,-104,120,119
1697892522.326:,-70,120,119
1697892522.326:,-51,120,119
1697892522.326:,-48,120,119
1697892522.326:,-48,120,119
1697892522.326:,-49,120,119
1697892522.351:,-53,120,119
1697892522.351:,-63,120,119
1697892522.351:,-62,120,119
1697892522.351:,-43,120,119
1697892522.351:,-15,120,119
1697892522.351:,0,120,119
1697892522.351:,-1,120,119
1697892522.351:,-2,120,119
1697892522.351:,14,120,119
1697892522.351:,40,120,119
1697892522.351:,59,120,119
1697892522.351:,60,120,119
1697892522.372:,53,120,119
1697892522.372:,55,120,119
1697892522.372:,65,120,119
1697892522.372:,75,120,119
1697892522.372:,77,120,119
1697892522.372:,73,120,119
1697892522.372:,72,120,119
1697892522.372:,91,120,119
1697892522.372:,146,120,119
1697892522.372:,238,120,119
1697892522.372:,356,120,119
1697892522.372:,477,120,119
1697892522.372:,588,120,119
1697892522.393:,703,120,119
1697892522.393:,849,120,119
1697892522.393:,1041,120,119
1697892522.393:,1272,120,119
1697892522.393:,1519,120,119
1697892522.393:,1754,120,119
1697892522.393:,1936,120,119
1697892522.393:,1989,120,119
1697892522.393:,1814,120,119
1697892522.393:,1347,120,119
1697892522.393:,616,120,119
1697892522.393:,-258,120,119
1697892522.419:,-1154,120,119
1697892522.419:,-2015,120,119
1697892522.419:,-2830,120,119
1697892522.419:,-3553,120,119
1697892522.419:,-4065,120,119
